"input_id","JulianDay","R","S","Weight","Length","ingested_weight","ingested_energy","avg_stomach","selectivity","ingested_prey_size","mode1","mode2","mode3","max1","max2","max3","year"
1,141,0.396552,0.372518,0.167871,4.25768,0.0668381,0.207827,0.0347783,1.0186,1.99873,0.104671,0.893975,0.00135342,9.33225,25.3444,0.000321295,1979
1,142,0.469471,0.429589,0.195347,4.44739,0.0585615,0.180868,0.0443323,1.01541,1.94112,0.116666,0.881929,0.00140552,13.5722,30.8186,0.000387039,1979
1,143,0.549371,0.490613,0.225004,4.63176,0.0642573,0.197182,0.0490352,1.01356,1.88801,0.128212,0.870335,0.00145291,18.0896,35.5668,0.000440868,1979
1,144,0.637515,0.556427,0.257275,4.81353,0.0709145,0.21632,0.0537946,1.01241,1.83991,0.139687,0.858795,0.00151773,23.0262,40.1314,0.000497734,1979
1,145,0.734413,0.627251,0.292297,4.99317,0.0779555,0.236592,0.0587136,1.01184,1.79732,0.150658,0.84774,0.00160199,28.1365,44.3752,0.00055836,1979
1,146,0.840626,0.703335,0.330226,5.17109,0.0853953,0.258108,0.0637974,1.01181,1.76025,0.160791,0.837503,0.00170604,33.1697,48.1953,0.000622726,1979
1,147,0.956795,0.784976,0.371244,5.3477,0.0932733,0.281039,0.0690517,1.01226,1.72836,0.169922,0.828248,0.00183075,37.9418,51.5608,0.000691304,1979
1,148,1.08351,0.872423,0.415508,5.52325,0.101539,0.305279,0.0736705,1.01317,1.70116,0.177985,0.820039,0.00197618,42.3214,54.4718,0.000764162,1979
1,149,1.22127,0.965847,0.463141,5.69778,0.110149,0.330619,0.07911,1.01447,1.6781,0.185006,0.812851,0.00214239,46.2421,56.9584,0.000841432,1979
1,150,1.37043,1.06534,0.514223,5.8712,0.119039,0.356811,0.0847296,1.01609,1.65862,0.191063,0.806608,0.00232934,49.6864,59.0645,0.000923195,1979
1,151,1.53844,1.17561,0.571228,6.05074,0.133855,0.400827,0.0900707,1.01819,1.64252,0.19604,0.801449,0.00251167,52.4935,60.7206,0.00099723,1979
1,152,1.71612,1.2904,0.630972,6.2256,0.141633,0.423882,0.0966359,1.02017,1.62849,0.200571,0.796685,0.00274467,55.1177,62.255,0.00109086,1979
1,153,1.90716,1.41198,0.69466,6.39941,0.151924,0.454667,0.102753,1.0223,1.61668,0.20442,0.792585,0.00299455,57.3337,63.5277,0.00118745,1979
1,154,2.11179,1.54033,0.762323,6.57197,0.162438,0.486064,0.108417,1.0245,1.60666,0.20772,0.789015,0.00326472,59.217,64.5961,0.00128886,1979
1,155,2.32944,1.67499,0.833737,6.74258,0.172703,0.516479,0.114635,1.02673,1.59816,0.210558,0.785887,0.00355451,60.8143,65.494,0.001395,1979
1,156,2.56004,1.81577,0.908841,6.91106,0.182952,0.546887,0.120393,1.02897,1.59093,0.213007,0.783131,0.00386224,62.1661,66.2488,0.00150541,1979
1,157,2.80423,1.96296,0.98781,7.07777,0.193576,0.578769,0.126141,1.03117,1.58478,0.215129,0.780684,0.00418664,63.311,66.8846,0.0016199,1979
1,158,3.06326,2.1172,1.07101,7.2434,0.204873,0.613371,0.132021,1.03333,1.57954,0.216981,0.778492,0.00452713,64.2836,67.4226,0.00173862,1979
1,159,3.33793,2.27883,1.15867,7.40821,0.216636,0.649789,0.137188,1.03544,1.57508,0.218607,0.776509,0.00488367,65.1135,67.8802,0.00186203,1979
1,160,3.62769,2.44739,1.25057,7.57165,0.228112,0.685319,0.141666,1.0375,1.5713,0.220044,0.7747,0.00525545,65.8241,68.2708,0.00199031,1979
1,161,3.93181,2.62236,1.34644,7.73324,0.23915,0.719633,0.146065,1.03949,1.56812,0.22132,0.77304,0.00563993,66.433,68.6042,0.00212303,1979
1,162,4.24938,2.80313,1.44598,7.89251,0.249584,0.752368,0.14947,1.04143,1.56549,0.222458,0.771507,0.00603412,66.9551,68.8886,0.0022597,1979
1,163,4.57908,2.98889,1.54875,8.0489,0.259138,0.782798,0.151535,1.04333,1.56334,0.223479,0.770086,0.00643462,67.4032,69.1309,0.00239978,1979
1,164,4.88371,3.15886,1.64321,8.1862,0.244809,0.740636,0.153026,1.04519,1.56164,0.224399,0.768764,0.00683735,67.7879,69.3367,0.0025426,1979
1,165,5.18522,3.32568,1.73629,8.31606,0.244839,0.741117,0.151868,1.04704,1.56041,0.225221,0.76758,0.00719904,68.0968,69.4967,0.00267232,1979
1,166,5.4836,3.48948,1.82802,8.43923,0.244923,0.741586,0.151262,1.04888,1.5596,0.225969,0.766489,0.00754161,68.3575,69.6274,0.0027987,1979
1,167,5.77911,3.65053,1.91851,8.55648,0.245081,0.742635,0.150771,1.05072,1.55921,0.226655,0.765483,0.00786243,68.5779,69.7329,0.00292188,1979
1,168,6.07213,3.80913,2.00792,8.66849,0.24527,0.744607,0.149844,1.0533,1.55905,0.22715,0.764705,0.00814541,68.7733,69.8208,0.00303291,1979
1,169,6.36281,3.96546,2.09632,8.77577,0.24544,0.747084,0.14824,1.05726,1.55894,0.227348,0.764277,0.00837523,68.9556,69.8981,0.00312232,1979
1,170,6.65108,4.11955,2.1837,8.87868,0.245593,0.749493,0.146275,1.0625,1.55886,0.227286,0.764164,0.00855059,69.1258,69.9663,0.00318956,1979
1,171,6.93679,4.2714,2.27005,8.97751,0.245731,0.75165,0.144347,1.0689,1.55881,0.227,0.764329,0.00867039,69.2847,70.0266,0.00323428,1979
1,172,7.21975,4.42098,2.35533,9.07251,0.245856,0.75336,0.142686,1.07637,1.55876,0.226527,0.764739,0.00873386,69.4327,70.0798,0.00325632,1979
1,173,7.49973,4.56821,2.43948,9.16386,0.245967,0.754476,0.141466,1.0848,1.55873,0.225899,0.765361,0.0087407,69.5706,70.1269,0.00325575,1979
1,174,7.77658,4.71308,2.52248,9.25177,0.246066,0.755147,0.1407,1.0941,1.55868,0.225146,0.766163,0.00869103,69.699,70.1683,0.00323284,1979
1,175,8.05021,4.8556,2.60431,9.33644,0.246153,0.755528,0.140258,1.10419,1.55863,0.224298,0.767116,0.00858555,69.8183,70.2048,0.00318814,1979
1,176,8.32046,4.99574,2.68495,9.41803,0.246227,0.755406,0.140147,1.11496,1.55856,0.22338,0.768195,0.00842553,69.9292,70.2367,0.0031224,1979
1,177,8.58714,5.13343,2.76435,9.49667,0.246289,0.754571,0.140541,1.12633,1.55848,0.222414,0.769373,0.00821268,70.0321,70.2646,0.00303658,1979
1,178,8.85002,5.26862,2.84246,9.57246,0.246337,0.752924,0.141594,1.13821,1.55836,0.221422,0.770628,0.00794923,70.1276,70.2887,0.0029318,1979
1,179,9.10911,5.40134,2.91928,9.64556,0.246372,0.751205,0.143062,1.15053,1.55821,0.220422,0.77194,0.00763791,70.2162,70.3093,0.00280938,1979
1,180,9.36465,5.53176,2.99491,9.7162,0.246392,0.75012,0.144313,1.16319,1.55804,0.219428,0.773289,0.00728214,70.2983,70.3268,0.00267087,1979
1,181,9.61681,5.66,3.06941,9.78453,0.246398,0.749496,0.145029,1.17613,1.55782,0.218456,0.774658,0.00688599,70.3744,70.3414,0.00251805,1979
1,182,9.8657,5.78614,3.14281,9.85071,0.246389,0.74915,0.1453,1.18926,1.55756,0.217515,0.776031,0.00645391,70.445,70.3534,0.00235279,1979
1,183,10.1114,5.91025,3.21514,9.91485,0.246364,0.748913,0.145285,1.20251,1.55727,0.216617,0.777392,0.00599083,70.5105,70.3629,0.0021771,1979
1,184,10.354,6.03243,3.28645,9.97709,0.246323,0.74906,0.144958,1.2158,1.55693,0.21577,0.778728,0.0055021,70.5712,70.3703,0.00199312,1979
1,185,10.5937,6.15278,3.35681,10.0375,0.246265,0.749812,0.144106,1.22905,1.55655,0.21498,0.780027,0.00499355,70.6274,70.3756,0.00180311,1979
1,186,10.8306,6.27139,3.42625,10.0963,0.24619,0.750981,0.142691,1.2422,1.55613,0.214253,0.781275,0.00447151,70.6795,70.379,0.00160944,1979
1,187,11.0648,6.38829,3.49478,10.1535,0.246099,0.752365,0.140884,1.25517,1.55567,0.213595,0.782463,0.00394269,70.7278,70.3807,0.00141461,1979
1,188,11.2962,6.50349,3.5624,10.2092,0.24599,0.753734,0.138907,1.26788,1.55517,0.213008,0.783578,0.00341423,70.7725,70.3809,0.0012212,1979
1,189,11.5247,6.61694,3.62909,10.2633,0.245865,0.754614,0.137096,1.28028,1.55463,0.212495,0.784611,0.00289369,70.8139,70.3795,0.00103189,1979
1,190,11.7501,6.72858,3.69479,10.3159,0.245724,0.754876,0.135737,1.29227,1.55406,0.212059,0.785552,0.00238903,70.8521,70.3768,0.000849443,1979
1,191,11.9724,6.8384,3.7595,10.3671,0.245567,0.754786,0.134796,1.30381,1.55347,0.211701,0.786391,0.00190864,70.8874,70.3729,0.000676751,1979
1,192,12.1916,6.94641,3.82323,10.4169,0.245395,0.754623,0.134044,1.31481,1.55285,0.211421,0.787117,0.00146129,70.9199,70.3679,0.000516781,1979
1,193,12.4077,7.05267,3.88599,10.4654,0.24521,0.754641,0.133238,1.3252,1.55222,0.211221,0.787723,0.00105611,70.9497,70.3618,0.00037259,1979
1,194,12.6208,7.1572,3.94779,10.5126,0.245012,0.754894,0.132234,1.33492,1.55158,0.211101,0.788197,0.000702533,70.9772,70.355,0.000247307,1979
1,195,12.8308,7.26002,4.00866,10.5586,0.244805,0.755122,0.131113,1.34389,1.55094,0.211059,0.788531,0.000410214,71.0022,70.3475,0.000144126,1979
1,196,13.0216,7.35326,4.0639,10.5998,0.22937,0.708041,0.128285,1.35206,1.55033,0.211076,0.788733,0.000191297,71.0373,70.3599,6.7119e-05,1979
1,197,13.2097,7.44498,4.1183,10.6401,0.229159,0.70739,0.123595,1.35932,1.54972,0.211192,0.788759,4.94757e-05,71.0569,70.3503,1.73365e-05,1979
1,198,13.3951,7.53518,4.17185,10.6794,0.228947,0.705972,0.123082,1.3656,1.54914,0.211385,0.788615,0,71.0747,70.3405,0,1979
1,199,13.5776,7.62386,4.22454,10.7176,0.228729,0.704078,0.123578,1.37165,1.54857,0.2116,0.788361,3.91563e-05,71.0918,70.33,1.37183e-05,1979
1,200,13.7573,7.71104,4.27638,10.755,0.228496,0.702176,0.124365,1.37822,1.54798,0.211782,0.788063,0.000155043,71.1088,70.3166,5.42879e-05,1979
1,201,13.9343,7.79674,4.32739,10.7914,0.22825,0.700327,0.12514,1.38528,1.54739,0.211934,0.787721,0.000345043,71.1258,70.3009,0.000120754,1979
1,202,14.1085,7.88099,4.37757,10.8269,0.227991,0.698587,0.125817,1.39278,1.54679,0.212057,0.787337,0.000606221,71.1426,70.2826,0.000212064,1979
1,203,14.2801,7.9638,4.42693,10.8616,0.227719,0.697052,0.126324,1.40067,1.54619,0.212154,0.786911,0.000935346,71.1593,70.2618,0.00032707,1979
1,204,14.449,8.04522,4.47551,10.8954,0.227435,0.696027,0.126487,1.40892,1.54558,0.212225,0.786446,0.0013289,71.1758,70.2385,0.000464535,1979
1,205,14.6154,8.12529,4.52331,10.9285,0.227139,0.695623,0.126114,1.41748,1.54498,0.212275,0.785942,0.00178312,71.1919,70.2126,0.000623141,1979
1,206,14.7793,8.20404,4.57036,10.9607,0.226832,0.695648,0.125217,1.42631,1.54437,0.212303,0.785403,0.00229397,71.2077,70.184,0.000801488,1979
1,207,14.9407,8.28147,4.61666,10.9923,0.226515,0.695931,0.123949,1.43537,1.54377,0.212313,0.784829,0.0028572,71.223,70.1528,0.000998101,1979
1,208,15.0995,8.35759,4.6622,11.0231,0.226189,0.696251,0.1225,1.44462,1.54318,0.212307,0.784224,0.00346835,71.2379,70.1187,0.00121143,1979
1,209,15.2558,8.43239,4.70698,11.0532,0.225854,0.696225,0.121143,1.45401,1.5426,0.212286,0.783591,0.00412271,71.2523,70.0817,0.00143987,1979
1,210,15.4095,8.50587,4.751,11.0825,0.225512,0.695734,0.120107,1.46351,1.54203,0.212253,0.782931,0.00481542,71.2662,70.0418,0.00168171,1979
1,211,15.5607,8.57804,4.79427,11.1112,0.225164,0.694987,0.119376,1.47307,1.54147,0.212209,0.782249,0.00554143,71.2795,69.9988,0.00193523,1979
1,212,15.6955,8.64227,4.83279,11.1366,0.20989,0.648101,0.116747,1.48271,1.54099,0.212096,0.781527,0.00637668,71.3018,69.9798,0.00222787,1979
2,141,0.401719,0.376668,0.169849,4.27213,0.0722787,0.21919,0.034515,0.915596,1.72627,0.181243,0.815275,0.0034815,25.1073,34.8936,0.000719605,1980
2,142,0.486571,0.442904,0.20177,4.4891,0.068134,0.2076,0.044063,0.906078,1.73526,0.189758,0.806662,0.00358078,28.8026,39.0252,0.00086245,1980
2,143,0.581465,0.514956,0.236867,4.70086,0.0752978,0.230556,0.049445,0.89666,1.74534,0.198187,0.798205,0.00360801,31.8488,42.2641,0.000981809,1980
2,144,0.68742,0.593375,0.275452,4.90911,0.0831089,0.255736,0.0550033,0.88712,1.75524,0.206951,0.789424,0.00362554,34.8158,45.2521,0.00110299,1980
2,145,0.804969,0.678327,0.317652,5.11415,0.0912025,0.282081,0.060794,0.877668,1.76471,0.215801,0.780561,0.0036379,37.6865,47.9929,0.00122549,1980
2,146,0.934745,0.770044,0.363625,5.31638,0.0996335,0.309807,0.0668094,0.868476,1.7736,0.224524,0.771829,0.00364697,40.4329,50.4839,0.00134801,1980
2,147,1.07748,0.868823,0.413568,5.51627,0.108463,0.339139,0.0730467,0.85967,1.78184,0.232956,0.763391,0.00365345,43.03,52.7279,0.00146902,1980
2,148,1.23398,0.974994,0.467693,5.71423,0.117721,0.370211,0.078629,0.851323,1.7894,0.240998,0.755342,0.00365956,45.4741,54.7456,0.00158829,1980
2,149,1.40516,1.08896,0.526253,5.91071,0.127481,0.403301,0.0851831,0.843489,1.7963,0.248573,0.747762,0.00366507,47.7519,56.5483,0.00170451,1980
2,150,1.59185,1.21104,0.58946,6.10593,0.137703,0.438177,0.091957,0.836196,1.80256,0.25564,0.74069,0.00367024,49.8608,58.1537,0.00181694,1980
2,151,1.80374,1.34723,0.660499,6.3082,0.154903,0.495683,0.0991745,0.829684,1.80875,0.261928,0.734432,0.0036395,51.6189,59.4506,0.0019014,1980
2,152,2.02997,1.49017,0.735611,6.50576,0.164293,0.528711,0.107142,0.823402,1.81371,0.268034,0.728312,0.00365404,53.458,60.7616,0.00201055,1980
2,153,2.27599,1.64314,0.81656,6.70311,0.177002,0.573087,0.114822,0.817685,1.81825,0.273583,0.722755,0.00366239,55.1061,61.9026,0.00211069,1980
2,154,2.54445,1.80749,0.904131,6.90141,0.191131,0.62302,0.122709,0.812469,1.82233,0.27864,0.71769,0.00367053,56.6021,62.9116,0.00220551,1980
2,155,2.83692,1.98386,0.998736,7.10073,0.206147,0.676283,0.129928,0.80772,1.82595,0.283239,0.713081,0.00368001,57.9606,63.8065,0.00229599,1980
2,156,3.15341,2.17195,1.10029,7.30017,0.221274,0.729795,0.138201,0.80341,1.82914,0.287407,0.708902,0.00369112,59.1901,64.5997,0.00238231,1980
2,157,3.49441,2.37175,1.20886,7.49931,0.236725,0.784494,0.146797,0.799516,1.83194,0.291169,0.705128,0.00370325,60.2959,65.3,0.00246403,1980
2,158,3.86112,2.58371,1.32476,7.6982,0.252844,0.841879,0.154729,0.796008,1.83436,0.294553,0.70173,0.00371687,61.2869,65.9175,0.0025415,1980
2,159,4.25562,2.80872,1.44854,7.89731,0.270033,0.903674,0.16346,0.792857,1.83639,0.297588,0.698678,0.00373364,62.1738,66.4624,0.002616,1980
2,160,4.67919,3.04721,1.58053,8.09662,0.287996,0.968319,0.171578,0.790033,1.83803,0.300305,0.695939,0.00375626,62.9682,66.9444,0.00268971,1980
2,161,5.13071,3.29829,1.72028,8.29506,0.305555,1.03107,0.180437,0.78751,1.83928,0.302726,0.693486,0.00378748,63.6789,67.371,0.00276482,1980
2,162,5.6089,3.56101,1.86735,8.49176,0.322624,1.09166,0.188727,0.78527,1.84012,0.304872,0.691299,0.00382946,64.3116,67.7473,0.0028431,1980
2,163,6.11269,3.83458,2.02134,8.68617,0.339296,1.1505,0.197096,0.783295,1.84055,0.306757,0.689358,0.00388552,64.8725,68.0785,0.00292714,1980
2,164,6.64101,4.11828,2.18187,8.87785,0.355538,1.20764,0.205834,0.781568,1.84054,0.308397,0.687643,0.00396019,65.3685,68.3695,0.0030205,1980
2,165,7.19304,4.41154,2.34867,9.06658,0.371479,1.26361,0.213691,0.780077,1.84007,0.309805,0.686136,0.00405923,65.806,68.6251,0.00312759,1980
2,166,7.76761,4.71363,2.52135,9.2521,0.386944,1.3177,0.221135,0.778811,1.8391,0.310988,0.684822,0.00418968,66.191,68.8494,0.00325372,1980
2,167,8.36256,5.02335,2.69923,9.43392,0.401452,1.36803,0.227525,0.777764,1.83761,0.311953,0.683688,0.00435971,66.5287,69.0459,0.00340488,1980
2,168,8.97489,5.3391,2.88142,9.61144,0.414613,1.413,0.233654,0.776935,1.83553,0.312698,0.682724,0.00457849,66.8233,69.2175,0.00358753,1980
2,169,9.60039,5.65873,3.06666,9.78386,0.426013,1.45024,0.238449,0.781663,1.83412,0.310304,0.684828,0.00486791,67.1601,69.3667,0.00380122,1980
2,170,10.1806,5.95269,3.23773,9.93657,0.405565,1.3778,0.241665,0.796857,1.83474,0.302429,0.692325,0.00524563,67.5914,69.496,0.00404136,1980
2,171,10.751,6.23957,3.4053,10.0806,0.40471,1.37195,0.241404,0.82188,1.83745,0.290317,0.703993,0.00569056,68.0517,69.5981,0.00429081,1980
2,172,11.3116,6.5195,3.56937,10.2168,0.403756,1.36568,0.239568,0.855946,1.8419,0.275472,0.718312,0.00621595,68.514,69.6839,0.00456251,1980
2,173,11.862,6.7926,3.72995,10.3459,0.402762,1.35905,0.237434,0.898137,1.84743,0.259295,0.733886,0.00681949,68.9493,69.7561,0.00485715,1980
2,174,12.4019,7.05893,3.88701,10.4683,0.401649,1.35155,0.235654,0.947401,1.85321,0.242906,0.749595,0.0074989,69.3414,69.8165,0.00517495,1980
2,175,12.9312,7.31852,4.04053,10.5845,0.400265,1.3435,0.234156,1.0026,1.85838,0.227099,0.764648,0.0082526,69.6844,69.8667,0.00551566,1980
2,176,13.4496,7.57141,4.19048,10.695,0.398441,1.33499,0.232259,1.06256,1.86221,0.212366,0.778554,0.00908004,69.9789,69.9081,0.00587863,1980
2,177,13.9562,7.81734,4.33667,10.8001,0.396033,1.32495,0.229705,1.12613,1.8642,0.198968,0.79105,0.00998163,70.2292,69.9416,0.00626278,1980
2,178,14.4498,8.05585,4.47878,10.8998,0.392934,1.31236,0.226797,1.19218,1.86399,0.187004,0.802037,0.0109583,70.4405,69.9681,0.00666652,1980
2,179,14.929,8.28634,4.61641,10.9943,0.389082,1.29654,0.223897,1.25962,1.8614,0.176471,0.811518,0.0120112,70.6186,69.9881,0.00708768,1980
2,180,15.3922,8.50828,4.74921,11.0835,0.384447,1.27781,0.220973,1.32743,1.85639,0.167306,0.819552,0.0131415,70.7687,70.0023,0.00752365,1980
2,181,15.8384,8.72122,4.87688,11.1676,0.379032,1.25682,0.217546,1.39464,1.84897,0.159419,0.82623,0.0143506,70.8954,70.0111,0.00797152,1980
2,182,16.2663,8.92472,4.9991,11.2466,0.372858,1.23348,0.213342,1.46035,1.83924,0.152707,0.831653,0.0156396,71.0025,70.0149,0.00842811,1980
2,183,16.6748,9.11832,5.11558,11.3207,0.365968,1.20772,0.20847,1.52374,1.82733,0.14707,0.835921,0.0170094,71.0935,70.0141,0.00888996,1980
2,184,17.0627,9.30163,5.22603,11.3898,0.358418,1.17965,0.203076,1.58405,1.81341,0.14241,0.83913,0.0184601,71.1709,70.0092,0.00935333,1980
2,185,17.4292,9.4743,5.33024,11.4541,0.350279,1.14976,0.197143,1.64063,1.79766,0.138641,0.841368,0.0199909,71.2369,70.0004,0.00981426,1980
2,186,17.7736,9.63612,5.42802,11.5135,0.341635,1.11844,0.19059,1.69293,1.78032,0.135684,0.842717,0.0215994,71.2934,69.9882,0.0102687,1980
2,187,18.0952,9.78686,5.51922,11.5683,0.332586,1.08569,0.183575,1.74049,1.76163,0.133467,0.843252,0.0232813,71.3418,69.973,0.0107124,1980
2,188,18.3936,9.92641,5.60375,11.6185,0.323244,1.0516,0.176452,1.78299,1.74188,0.131925,0.843046,0.0250293,71.3834,69.9552,0.0111413,1980
2,189,18.6685,10.0548,5.68157,11.6642,0.313741,1.0164,0.16956,1.82022,1.72138,0.130993,0.842175,0.0268322,71.419,69.9354,0.0115509,1980
2,190,18.9203,10.1721,5.75276,11.7057,0.304224,0.980938,0.162989,1.85212,1.7005,0.130608,0.840718,0.0286734,71.4496,69.9141,0.0119371,1980
2,191,19.1495,10.2786,5.8175,11.7431,0.294859,0.946061,0.156635,1.87876,1.67965,0.130702,0.838768,0.0305301,71.4757,69.8919,0.0122959,1980
2,192,19.3569,10.375,5.87607,11.7766,0.285828,0.912204,0.150602,1.90035,1.65929,0.131197,0.836432,0.0323712,71.4979,69.8697,0.0126233,1980
2,193,19.5441,10.4618,5.92887,11.8067,0.277331,0.879919,0.145178,1.91721,1.63992,0.132006,0.833838,0.0341565,71.5167,69.8481,0.0129159,1980
2,194,19.7127,10.5399,5.97643,11.8336,0.26958,0.849905,0.140616,1.9298,1.62207,0.133027,0.831138,0.0358357,71.5323,69.8281,0.0131703,1980
2,195,19.8652,10.6104,6.01939,11.8577,0.262794,0.823667,0.136813,1.93863,1.60633,0.134144,0.828507,0.0373491,71.5451,69.8107,0.0133835,1980
2,196,19.9906,10.6684,6.05471,11.8775,0.241116,0.752326,0.131545,1.94435,1.59335,0.135133,0.825795,0.0390717,71.5609,69.8237,0.0137187,1980
2,197,20.1063,10.7219,6.0873,11.8957,0.237185,0.737548,0.124648,1.94731,1.58355,0.136064,0.823892,0.0400445,71.5684,69.8137,0.0138376,1980
2,198,20.2156,10.7724,6.11808,11.9128,0.234763,0.728176,0.122444,1.94803,1.57756,0.136716,0.822638,0.0406462,71.5737,69.8095,0.0139084,1980
2,199,20.3205,10.8207,6.14759,11.9291,0.233184,0.721404,0.121679,1.94731,1.57366,0.137288,0.82176,0.0409521,71.5776,69.8079,0.013925,1980
2,200,20.4212,10.8671,6.1759,11.9447,0.231663,0.714637,0.121531,1.94574,1.56982,0.138045,0.820903,0.0410518,71.5811,69.8036,0.0138736,1980
2,201,20.5177,10.9116,6.20304,11.9596,0.230197,0.708461,0.121439,1.94338,1.56604,0.138976,0.820061,0.0409629,71.5841,69.7972,0.0137614,1980
2,202,20.6102,10.9542,6.22906,11.9739,0.228784,0.702983,0.121067,1.94031,1.56231,0.140069,0.819237,0.040694,71.5867,69.7887,0.0135922,1980
2,203,20.6989,10.995,6.25397,11.9875,0.227423,0.698271,0.120295,1.93658,1.55864,0.141313,0.818433,0.0402541,71.589,69.7782,0.01337,1980
2,204,20.7837,11.034,6.2778,12.0005,0.22611,0.6944,0.119041,1.93226,1.55504,0.142698,0.817649,0.0396532,71.5909,69.7657,0.0130985,1980
2,205,20.8647,11.0713,6.30057,12.0129,0.224845,0.691015,0.117408,1.92741,1.55151,0.144213,0.816885,0.0389012,71.5925,69.7513,0.0127819,1980
2,206,20.9421,11.1068,6.32231,12.0247,0.223625,0.687875,0.115638,1.92208,1.54804,0.145849,0.816142,0.0380091,71.5937,69.7349,0.0124243,1980
2,207,21.0159,11.1407,6.34303,12.0359,0.222449,0.685139,0.113782,1.91633,1.54465,0.147593,0.815419,0.0369882,71.5947,69.7166,0.0120299,1980
2,208,21.0861,11.1729,6.36273,12.0465,0.221315,0.682999,0.111709,1.91022,1.54135,0.149435,0.814714,0.0358501,71.5953,69.6963,0.0116028,1980
2,209,21.1525,11.2034,6.38137,12.0566,0.220223,0.681516,0.109319,1.90379,1.53812,0.151365,0.814028,0.034607,71.5957,69.6742,0.0111473,1980
2,210,21.2153,11.2322,6.39901,12.066,0.219171,0.679835,0.106934,1.89711,1.53499,0.153371,0.813358,0.0332713,71.5959,69.65,0.0106677,1980
2,211,21.275,11.2596,6.41575,12.075,0.218158,0.677371,0.105106,1.89023,1.53195,0.155441,0.812703,0.0318562,71.5957,69.624,0.0101685,1980
2,212,21.3436,11.2596,6.42565,12.075,0.202727,0.629647,0.102008,1.88331,1.52911,0.15745,0.811797,0.0307528,71.6008,69.6276,0.00978156,1980
3,141,0.395424,0.371611,0.167439,4.25451,0.0675619,0.205003,0.0302279,1.23887,1.28039,0.27294,0.719697,0.00736261,48.5422,25.8059,0.00114922,1981
3,142,0.475058,0.433936,0.197444,4.4611,0.0644869,0.195896,0.041627,1.26086,1.30964,0.26257,0.729368,0.00806131,50.9761,28.5801,0.00137471,1981
3,143,0.563925,0.501662,0.230387,4.66341,0.0713867,0.217136,0.0464014,1.27293,1.33002,0.255391,0.73591,0.00869886,52.5802,30.6155,0.00157452,1981
3,144,0.662917,0.575268,0.266537,4.8628,0.078922,0.240336,0.0511921,1.28084,1.34756,0.249232,0.741389,0.00937874,53.9083,32.4442,0.00178518,1981
3,145,0.772224,0.654688,0.305904,5.05897,0.0866043,0.263957,0.0557762,1.28493,1.36269,0.243932,0.745964,0.0101037,55.0077,34.079,0.00200712,1981
3,146,0.892188,0.739986,0.348555,5.25204,0.0945183,0.288348,0.0607328,1.28529,1.37562,0.23942,0.749709,0.0108703,55.9003,35.513,0.00223841,1981
3,147,1.02322,0.831277,0.394583,5.44225,0.102679,0.313675,0.0653791,1.28214,1.38671,0.235577,0.752742,0.011681,56.6165,36.7611,0.00247923,1981
3,148,1.16603,0.928884,0.444189,5.63019,0.111253,0.340596,0.0699562,1.27554,1.39618,0.232331,0.755134,0.0125349,57.1723,37.8271,0.00272833,1981
3,149,1.32124,1.03305,0.497534,5.81621,0.120174,0.368921,0.0743247,1.26555,1.40429,0.229604,0.756962,0.0134338,57.5836,38.7222,0.00298545,1981
3,150,1.48897,1.14369,0.554608,6.00002,0.129152,0.397601,0.0783783,1.25215,1.41125,0.227334,0.758286,0.0143797,57.86,39.4551,0.0032501,1981
3,151,1.6772,1.26581,0.61805,6.18909,0.14426,0.445243,0.0824089,1.23394,1.4157,0.226049,0.75869,0.0152611,57.8625,39.8071,0.00347817,1981
3,152,1.87516,1.39217,0.684158,6.37183,0.151587,0.46875,0.0874104,1.21384,1.4213,0.224391,0.75928,0.016329,57.9145,40.2921,0.00376426,1981
3,153,2.06465,1.51133,0.746903,6.53388,0.147078,0.455258,0.0898679,1.18972,1.42597,0.223168,0.759403,0.0174294,57.8031,40.5891,0.00404777,1981
3,154,2.25243,1.62788,0.808628,6.68402,0.14714,0.455648,0.0907275,1.16086,1.42923,0.222605,0.758905,0.0184905,57.4442,40.5899,0.00429872,1981
3,155,2.43723,1.74126,0.86898,6.82306,0.146447,0.45359,0.0904956,1.12762,1.43187,0.222442,0.758005,0.0195528,56.8687,40.3797,0.0045301,1981
3,156,2.61786,1.85091,0.927623,6.95169,0.145068,0.449142,0.0898574,1.08997,1.43429,0.222588,0.756791,0.0206215,56.0537,39.9744,0.00474111,1981
3,157,2.79318,1.95633,0.984245,7.07045,0.143068,0.44238,0.0890784,1.04798,1.43699,0.22293,0.755367,0.0217027,54.964,39.3892,0.00493118,1981
3,158,2.96221,2.05708,1.03857,7.17987,0.140522,0.433468,0.0883194,1.00188,1.44063,0.223324,0.753872,0.0228035,53.5513,38.6415,0.00509999,1981
3,159,3.12432,2.15297,1.09045,7.28061,0.137523,0.423347,0.0873944,0.952151,1.44609,0.223572,0.752497,0.0239305,51.7537,37.7533,0.00524751,1981
3,160,3.27927,2.24398,1.13985,7.37337,0.134199,0.412807,0.0858597,0.899697,1.4546,0.223397,0.751513,0.0250897,49.4985,36.7558,0.00537433,1981
3,161,3.4269,2.33012,1.18675,7.45881,0.130717,0.401929,0.0837122,0.845931,1.46771,0.222437,0.751281,0.0262823,46.7113,35.6916,0.00548156,1981
3,162,3.56724,2.41155,1.2312,7.53756,0.127293,0.390995,0.0814036,0.792896,1.48712,0.220265,0.752236,0.0274992,43.339,34.6167,0.00557038,1981
3,163,3.70068,2.48856,1.27333,7.61037,0.124186,0.380544,0.0794354,0.743267,1.51413,0.216493,0.754795,0.0287114,39.4042,33.6025,0.00564222,1981
3,164,3.82825,2.56181,1.31351,7.6782,0.121697,0.371989,0.0779763,0.7002,1.54827,0.211023,0.759121,0.029856,35.1047,32.7359,0.00569889,1981
3,165,3.95158,2.63233,1.35226,7.74222,0.120125,0.366774,0.0768283,0.666999,1.58524,0.204475,0.764705,0.0308192,30.95,32.1162,0.00574286,1981
3,166,4.07266,2.70127,1.39021,7.80367,0.11972,0.365501,0.0760235,0.646783,1.61576,0.19855,0.770018,0.0314319,27.8346,31.846,0.00577717,1981
3,167,4.19369,2.7699,1.42807,7.86378,0.120644,0.36852,0.0758915,0.642298,1.62841,0.195602,0.772885,0.0315133,26.8328,32.0167,0.00580504,1981
3,168,4.31598,2.83898,1.46624,7.92324,0.122452,0.373994,0.0765117,0.653005,1.62305,0.197023,0.771896,0.0310807,27.9391,32.5617,0.0058184,1981
3,169,4.4399,2.90871,1.50484,7.98225,0.124626,0.380272,0.0775871,0.676176,1.60709,0.202191,0.767519,0.0302904,30.3996,33.3537,0.00580776,1981
3,170,4.56599,2.9794,1.54404,8.04109,0.127183,0.387739,0.0787789,0.710194,1.58445,0.209517,0.761237,0.0292468,33.8125,34.3665,0.00577382,1981
3,171,4.69478,3.05134,1.584,8.09997,0.130124,0.396348,0.0799837,0.752906,1.55945,0.217366,0.754578,0.0280552,37.7049,35.5671,0.0057175,1981
3,172,4.82672,3.12476,1.62486,8.15908,0.133406,0.405903,0.0812957,0.801957,1.5355,0.224556,0.748648,0.0267965,41.6705,36.9179,0.00563975,1981
3,173,4.96215,3.19985,1.66671,8.21855,0.136953,0.416098,0.0828207,0.855024,1.51453,0.230467,0.744011,0.0255216,45.4322,38.3799,0.00554149,1981
3,174,5.10125,3.2767,1.70962,8.27841,0.140673,0.426696,0.084588,0.909991,1.49723,0.234925,0.740818,0.0242572,48.8403,39.9147,0.00542361,1981
3,175,5.24416,3.35537,1.75361,8.33869,0.144482,0.437603,0.0864917,0.965078,1.48349,0.238016,0.73897,0.0230144,51.8389,41.4872,0.00528695,1981
3,176,5.39089,3.43584,1.7987,8.39934,0.148303,0.448661,0.0883865,1.0189,1.47286,0.239945,0.738259,0.0217957,54.4308,43.0663,0.00513236,1981
3,177,5.54138,3.51807,1.84485,8.46032,0.152076,0.459761,0.0901613,1.07046,1.46477,0.240947,0.738453,0.0205997,56.6482,44.6261,0.00496078,1981
3,178,5.69551,3.602,1.89203,8.52153,0.155756,0.470801,0.0917292,1.11913,1.45869,0.24124,0.739337,0.0194234,58.5357,46.146,0.00477322,1981
3,179,5.85309,3.68749,1.94017,8.58288,0.159308,0.481583,0.0930882,1.16455,1.45416,0.241007,0.740729,0.0182635,60.1399,47.6101,0.0045708,1981
3,180,6.01387,3.7744,1.9892,8.64425,0.16271,0.491939,0.0943109,1.20659,1.45083,0.240398,0.742484,0.0171177,61.5042,49.0072,0.00435481,1981
3,181,6.17757,3.86259,2.03902,8.70552,0.165946,0.501905,0.0954074,1.24527,1.4484,0.239524,0.744492,0.0159841,62.6668,50.3298,0.00412666,1981
3,182,6.34396,3.9519,2.08957,8.76659,0.16901,0.511528,0.0963127,1.28071,1.44668,0.238471,0.746667,0.0148626,63.6606,51.5738,0.00388803,1981
3,183,6.51278,4.04221,2.14076,8.82737,0.171899,0.52085,0.0969677,1.3131,1.44549,0.237299,0.748948,0.0137538,64.5131,52.7374,0.00364078,1981
3,184,6.68369,4.13332,2.1925,8.88775,0.174614,0.529508,0.0975079,1.34267,1.44471,0.236051,0.751289,0.0126598,65.2473,53.821,0.00338701,1981
3,185,6.85635,4.22506,2.24468,8.94761,0.177162,0.537327,0.0981833,1.36964,1.44426,0.234757,0.753659,0.0115839,65.8821,54.8264,0.003129,1981
3,186,7.03047,4.31727,2.2972,9.00688,0.179547,0.544588,0.0989884,1.39426,1.44408,0.233437,0.756033,0.0105306,66.433,55.7561,0.00286925,1981
3,187,7.20585,4.40983,2.35001,9.06551,0.181778,0.55162,0.0996882,1.41675,1.44411,0.232101,0.758393,0.00950553,66.9132,56.6137,0.00261051,1981
3,188,7.38233,4.50269,2.40307,9.12346,0.183864,0.558711,0.100024,1.43733,1.44433,0.230757,0.760728,0.00851572,67.3333,57.4031,0.00235578,1981
3,189,7.55975,4.59574,2.45632,9.18071,0.185813,0.565697,0.0999497,1.45622,1.4447,0.229404,0.763027,0.0075692,67.7022,58.1284,0.00210822,1981
3,190,7.73784,4.68886,2.5097,9.2372,0.187634,0.572199,0.0997191,1.47358,1.44521,0.228041,0.765284,0.00667497,68.0273,58.7939,0.00187123,1981
3,191,7.91639,4.78194,2.56312,9.2929,0.189335,0.578153,0.0995606,1.48959,1.44586,0.226666,0.767491,0.00584298,68.3148,59.4035,0.00164832,1981
3,192,8.09515,4.87486,2.61652,9.34775,0.190924,0.583507,0.0995658,1.5044,1.44663,0.225273,0.769643,0.0050841,68.5699,59.9609,0.00144322,1981
3,193,8.27392,4.96751,2.66985,9.40172,0.192407,0.588186,0.0998103,1.51816,1.44751,0.223855,0.771735,0.00441007,68.7968,60.4698,0.00125982,1981
3,194,8.45247,5.05978,2.72304,9.45479,0.19379,0.592064,0.100396,1.53098,1.44852,0.222406,0.77376,0.0038334,68.9992,60.9336,0.00110217,1981
3,195,8.63062,5.1516,2.77603,9.50693,0.19508,0.595263,0.101343,1.54298,1.44964,0.220918,0.775715,0.00336735,69.1802,61.3552,0.000974468,1981
3,196,8.79525,5.23623,2.82493,9.55442,0.184351,0.561783,0.101088,1.55466,1.45126,0.219146,0.777796,0.00305858,69.3748,61.8488,0.000891963,1981
3,197,8.95938,5.32038,2.87362,9.60112,0.185361,0.56433,0.0989386,1.56528,1.4526,0.21758,0.779569,0.00285131,69.5162,62.1821,0.000835724,1981
3,198,9.12294,5.40406,2.92209,9.64705,0.1863,0.567155,0.0992386,1.57537,1.45408,0.215944,0.781257,0.00279989,69.6436,62.4824,0.000823436,1981
3,199,9.28616,5.48735,2.97039,9.69228,0.187363,0.570848,0.0994585,1.59182,1.45617,0.213159,0.783974,0.0028671,69.7878,62.7663,0.000843906,1981
3,200,9.44938,5.57047,3.01864,9.73694,0.188679,0.575538,0.0993886,1.61897,1.45921,0.208591,0.788407,0.00300179,69.9629,63.0421,0.000882008,1981
3,201,9.61287,5.65353,3.06692,9.78111,0.190178,0.580948,0.0991341,1.65302,1.46303,0.202887,0.793911,0.00320154,70.1502,63.3111,0.000937529,1981
3,202,9.77679,5.73663,3.11527,9.82486,0.191788,0.586746,0.098821,1.6906,1.46744,0.196626,0.799911,0.0034633,70.3355,63.5725,0.00100997,1981
3,203,9.94122,5.8198,3.16371,9.8682,0.193448,0.592621,0.0985792,1.72915,1.47226,0.190243,0.805973,0.00378401,70.5094,63.8258,0.00109877,1981
3,204,10.1062,5.90306,3.21225,9.91116,0.195112,0.598242,0.0985485,1.76691,1.47732,0.184033,0.811807,0.00416051,70.6673,64.0703,0.0012033,1981
3,205,10.2716,5.9864,3.26089,9.95374,0.196747,0.603444,0.0988254,1.80283,1.48247,0.178169,0.817242,0.00458952,70.8076,64.3057,0.00132285,1981
3,206,10.4375,6.06978,3.30961,9.99594,0.198331,0.608208,0.099405,1.83633,1.48761,0.172737,0.822195,0.00506763,70.9305,64.5316,0.00145668,1981
3,207,10.6038,6.15318,3.35838,10.0377,0.19985,0.612514,0.100245,1.86721,1.49266,0.167769,0.82664,0.00559127,71.0375,64.7479,0.00160395,1981
3,208,10.7703,6.23655,3.40719,10.0791,0.201297,0.616387,0.1013,1.89545,1.49755,0.163258,0.830585,0.00615672,71.1301,64.9544,0.00176377,1981
3,209,10.937,6.31983,3.45599,10.1201,0.202666,0.619957,0.102483,1.92116,1.50226,0.159183,0.834057,0.00676008,71.2102,65.151,0.00193519,1981
3,210,11.1037,6.40296,3.50475,10.1606,0.203957,0.623373,0.103666,1.94449,1.50677,0.155509,0.837094,0.00739737,71.2795,65.3378,0.0021172,1981
3,211,11.2704,6.4859,3.55345,10.2007,0.20517,0.626697,0.104747,1.96565,1.51106,0.152201,0.839735,0.00806443,71.3394,65.5147,0.00230871,1981
3,212,11.4228,6.56161,3.59794,10.237,0.192773,0.588705,0.103841,1.98516,1.51539,0.149071,0.842066,0.00886385,71.3997,65.7606,0.00254208,1981
4,141,0.354369,0.338507,0.151681,4.13483,0.0484196,0.111729,0.018509,1.03368,0.845291,0.628628,0.370067,0.00130459,42.51,5.79059,0.000113442,1982
4,142,0.405214,0.379016,0.171051,4.28026,0.0574146,0.130625,0.0298023,1.0629,0.831165,0.621181,0.377465,0.00135402,48.8307,7.07756,0.000144897,1982
4,143,0.467263,0.427467,0.194398,4.44066,0.0687697,0.156578,0.035041,1.10097,0.831601,0.60254,0.396007,0.00145331,54.0312,8.68719,0.000186297,1982
4,144,0.536284,0.480254,0.220039,4.60163,0.0750749,0.173006,0.0389153,1.1492,0.84523,0.575678,0.422724,0.0015978,58.1636,10.671,0.000240452,1982
4,145,0.613085,0.537827,0.248224,4.76375,0.0814251,0.191218,0.0421639,1.20685,0.869622,0.54511,0.453115,0.00177485,61.2813,12.9532,0.000307514,1982
4,146,0.698553,0.600673,0.279227,4.9275,0.0878968,0.211392,0.04552,1.27366,0.903271,0.513206,0.484814,0.00198066,63.6192,15.5098,0.00038921,1982
4,147,0.794043,0.669586,0.313479,5.09391,0.0949127,0.234544,0.0488602,1.34841,0.944419,0.481579,0.516206,0.00221434,65.3805,18.3117,0.000487671,1982
4,148,0.893551,0.740113,0.34879,5.25232,0.0962896,0.244919,0.0521949,1.42866,0.990785,0.451383,0.546141,0.00247653,66.7173,21.3147,0.000605116,1982
4,149,1.00374,0.816916,0.387507,5.41332,0.103288,0.269643,0.0552919,1.50866,1.03803,0.42428,0.572961,0.00275913,67.7158,24.3622,0.000739261,1982
4,150,1.12514,0.900155,0.429754,5.57636,0.110764,0.295454,0.0589057,1.58755,1.08539,0.399607,0.597321,0.00307247,68.4909,27.4837,0.000895159,1982
4,151,1.2665,0.995522,0.478484,5.75076,0.12587,0.341449,0.0639316,1.65756,1.12745,0.379114,0.617493,0.00339339,69.0626,30.3967,0.00106147,1982
4,152,1.43139,1.10493,0.534781,5.93708,0.142606,0.393253,0.070451,1.72893,1.17111,0.358893,0.637323,0.00378455,69.5593,33.5691,0.00126965,1982
4,153,1.59907,1.21434,0.591484,6.11101,0.143624,0.402362,0.0753163,1.79496,1.21175,0.340695,0.655074,0.00423182,69.9637,36.74,0.00151367,1982
4,154,1.77929,1.33016,0.6519,6.28365,0.152073,0.431763,0.0789569,1.85072,1.246,0.325611,0.669682,0.00470645,70.2743,39.6454,0.00177771,1982
4,155,1.97107,1.45162,0.71566,6.45382,0.16011,0.459225,0.0825,1.89873,1.27556,0.31267,0.682106,0.00522447,70.5235,42.3634,0.0020695,1982
4,156,2.17322,1.57786,0.782338,6.62053,0.167603,0.484342,0.0861235,1.93947,1.30072,0.301619,0.692596,0.00578533,70.7247,44.8701,0.00238791,1982
4,157,2.38442,1.70804,0.851491,6.78299,0.174468,0.506918,0.0897766,1.97366,1.32194,0.292209,0.701404,0.00638735,70.8879,47.1547,0.00273102,1982
4,158,2.60337,1.8413,0.922679,6.94063,0.180668,0.526916,0.0933841,2.00207,1.33973,0.284203,0.708769,0.00702773,71.0211,49.2172,0.00309622,1982
4,159,2.82885,1.97694,0.995514,7.09314,0.186198,0.544657,0.0967764,2.02549,1.35458,0.277389,0.714908,0.0077027,71.1304,51.0651,0.00348025,1982
4,160,3.05973,2.11428,1.06964,7.24035,0.19108,0.560301,0.0997955,2.0446,1.36695,0.271579,0.720014,0.00840776,71.2206,52.7119,0.00387938,1982
4,161,3.29486,2.2527,1.1447,7.38213,0.19535,0.573713,0.10253,2.06004,1.37724,0.266612,0.724251,0.00913769,71.2952,54.1733,0.00428941,1982
4,162,3.53305,2.39154,1.22032,7.51839,0.199052,0.584736,0.105249,2.0723,1.38579,0.262354,0.727759,0.00988639,71.3573,55.466,0.00470559,1982
4,163,3.7731,2.53018,1.29615,7.64907,0.202231,0.593308,0.108226,2.08179,1.39286,0.258695,0.730658,0.0106469,71.409,56.6061,0.00512262,1982
4,164,4.01424,2.66824,1.37197,7.77436,0.204931,0.600423,0.11125,2.08886,1.3987,0.255542,0.733046,0.0114117,71.4521,57.6089,0.00553476,1982
4,165,4.25604,2.80555,1.44766,7.89459,0.207199,0.606997,0.113663,2.09377,1.40348,0.252816,0.735011,0.0121731,71.4879,58.4895,0.00593629,1982
4,166,4.49803,2.94191,1.5231,8.01001,0.209075,0.612811,0.115239,2.09672,1.40738,0.25045,0.736626,0.0129241,71.5175,59.2617,0.00632158,1982
4,167,4.73965,3.07708,1.59812,8.1208,0.210595,0.617595,0.116267,2.09786,1.41052,0.248388,0.737955,0.0136568,71.5419,59.9372,0.00668458,1982
4,168,4.98037,3.21082,1.6726,8.22715,0.211833,0.621306,0.11712,2.0973,1.41326,0.246392,0.739217,0.0143904,71.5622,60.5441,0.00703487,1982
4,169,5.21997,3.34308,1.74647,8.32934,0.212858,0.624722,0.117793,2.09527,1.41593,0.244256,0.740595,0.0151494,71.5796,61.1058,0.00738574,1982
4,170,5.45845,3.47391,1.81976,8.4277,0.213692,0.628392,0.117886,2.09198,1.41856,0.241973,0.742093,0.0159334,71.5947,61.6262,0.00773667,1982
4,171,5.69568,3.6033,1.89244,8.52248,0.21436,0.631972,0.117348,2.08769,1.42118,0.239538,0.743719,0.0167423,71.6076,62.109,0.00808729,1982
4,172,5.93139,3.73115,1.96444,8.61383,0.214879,0.635068,0.116554,2.08262,1.42383,0.236943,0.745481,0.0175757,71.6188,62.557,0.00843708,1982
4,173,6.16526,3.85733,2.03568,8.70189,0.215269,0.637361,0.115912,2.07697,1.42653,0.234179,0.747388,0.0184327,71.6283,62.973,0.00878532,1982
4,174,6.397,3.98173,2.10609,8.78677,0.215545,0.638956,0.1156,2.07093,1.42932,0.231239,0.749449,0.0193121,71.6365,63.3592,0.00913116,1982
4,175,6.62647,4.10433,2.17563,8.86864,0.215724,0.64023,0.115476,2.06469,1.4322,0.228113,0.751675,0.0202127,71.6434,63.7178,0.0094738,1982
4,176,6.85357,4.22511,2.24429,8.94765,0.21582,0.641231,0.115399,2.0584,1.43522,0.224793,0.754073,0.0211334,71.6492,64.0508,0.00981253,1982
4,177,7.07822,4.34406,2.31205,9.02394,0.215848,0.642016,0.11535,2.05221,1.43838,0.221273,0.756654,0.022073,71.6539,64.3601,0.0101467,1982
4,178,7.30036,4.4612,2.37891,9.09767,0.215821,0.642648,0.115318,2.04623,1.4417,0.217545,0.759425,0.0230302,71.6578,64.6476,0.0104755,1982
4,179,7.52,4.57655,2.44489,9.16897,0.215754,0.64334,0.11522,2.04057,1.4452,0.213604,0.762393,0.0240034,71.6609,64.9148,0.0107984,1982
4,180,7.7372,4.69019,2.51,9.238,0.215657,0.644212,0.114946,2.03532,1.44889,0.209449,0.76556,0.0249911,71.6633,65.1631,0.0111147,1982
4,181,7.95199,4.80215,2.57426,9.30489,0.215543,0.64522,0.11449,2.03055,1.45276,0.20508,0.768928,0.0259915,71.665,65.3941,0.0114237,1982
4,182,8.16441,4.91249,2.6377,9.36975,0.215423,0.646314,0.113918,2.02631,1.45682,0.200502,0.772495,0.0270027,71.6662,65.6088,0.0117249,1982
4,183,8.37448,5.02123,2.70032,9.4327,0.215307,0.647426,0.113313,2.02266,1.46106,0.195724,0.776254,0.0280221,71.6669,65.8083,0.0120176,1982
4,184,8.58221,5.12841,2.76215,9.49383,0.215204,0.648443,0.11278,2.0196,1.46546,0.190763,0.780191,0.0290469,71.6672,65.9938,0.012301,1982
4,185,8.78763,5.23407,2.82319,9.55322,0.215122,0.649427,0.112362,2.01716,1.47,0.185639,0.784287,0.0300737,71.6671,66.166,0.0125744,1982
4,186,8.99081,5.33826,2.88347,9.61098,0.215067,0.650538,0.111983,2.01532,1.47465,0.180385,0.788517,0.0310985,71.6668,66.3258,0.0128371,1982
4,187,9.19184,5.44104,2.94302,9.66719,0.215044,0.651946,0.111509,2.01406,1.47938,0.175039,0.792844,0.0321169,71.6662,66.4739,0.0130884,1982
4,188,9.39081,5.54249,3.00188,9.72196,0.215054,0.653739,0.110824,2.01334,1.48412,0.169655,0.797221,0.0331234,71.6656,66.611,0.0133276,1982
4,189,9.58775,5.64262,3.06005,9.77533,0.215098,0.655585,0.11002,2.01311,1.48881,0.164295,0.801593,0.0341122,71.6649,66.7378,0.0135539,1982
4,190,9.78266,5.74145,3.11754,9.82738,0.215172,0.65723,0.109318,2.0133,1.49339,0.159036,0.805888,0.035076,71.6643,66.8546,0.0137666,1982
4,191,9.97555,5.83901,3.17437,9.87815,0.215267,0.658861,0.108727,2.01381,1.49775,0.153966,0.810027,0.0360065,71.6638,66.9621,0.0139649,1982
4,192,10.1664,5.9353,3.23052,9.92768,0.215373,0.660637,0.108077,2.01456,1.5018,0.14919,0.813915,0.0368947,71.6636,67.0606,0.0141479,1982
4,193,10.3552,6.03032,3.286,9.97602,0.215477,0.662692,0.107195,2.01542,1.50543,0.144822,0.817448,0.0377305,71.6638,67.1504,0.0143147,1982
4,194,10.5419,6.12404,3.34079,10.0232,0.21556,0.664612,0.106143,2.01629,1.50853,0.140984,0.820513,0.0385028,71.6644,67.2318,0.0144646,1982
4,195,10.7263,6.21641,3.39484,10.0692,0.215604,0.665968,0.105193,2.01704,1.51097,0.137805,0.822995,0.0392,71.6656,67.305,0.0145964,1982
4,196,10.8937,6.30012,3.44388,10.1104,0.202205,0.625392,0.102913,2.01778,1.51281,0.135263,0.824483,0.0402542,71.6716,67.425,0.0148903,1982
4,197,11.0588,6.3825,3.49219,10.1507,0.20211,0.625631,0.099192,2.01793,1.51357,0.133794,0.82547,0.0407365,71.6737,67.4777,0.0149703,1982
4,198,11.2215,6.46347,3.53972,10.1899,0.201931,0.625426,0.0983603,2.01767,1.51334,0.133338,0.825552,0.04111,71.6767,67.523,0.01503,1982
4,199,11.3815,6.54301,3.58645,10.2281,0.20171,0.624953,0.0978444,2.01713,1.51261,0.133447,0.825236,0.0413163,71.6792,67.5537,0.0150396,1982
4,200,11.539,6.62115,3.6324,10.2653,0.201489,0.624324,0.0974532,2.01648,1.51191,0.13362,0.825099,0.0412816,71.6794,67.56,0.0149605,1982
4,201,11.6941,6.69793,3.67759,10.3015,0.201267,0.623494,0.0972157,2.01572,1.51122,0.133851,0.825124,0.041025,71.6777,67.5444,0.0148004,1982
4,202,11.8467,6.77338,3.72204,10.3369,0.20104,0.622397,0.0971654,2.01484,1.51054,0.134142,0.825301,0.0405569,71.674,67.5073,0.0145634,1982
4,203,11.997,6.84755,3.76576,10.3714,0.200803,0.620985,0.0973332,2.01383,1.50986,0.134494,0.825617,0.0398884,71.6684,67.4489,0.014254,1982
4,204,12.1449,6.92045,3.80877,10.405,0.200552,0.619385,0.0976745,2.01268,1.50918,0.134909,0.82606,0.039031,71.6607,67.3688,0.0138771,1982
4,205,12.2905,6.99208,3.85107,10.4378,0.20028,0.617838,0.0980323,2.01138,1.50847,0.135388,0.826615,0.0379968,71.6508,67.2664,0.0134375,1982
4,206,12.4337,7.06244,3.89264,10.4698,0.199978,0.616437,0.0982534,2.0099,1.50775,0.135935,0.827266,0.0367984,71.6385,67.1403,0.0129407,1982
4,207,12.5745,7.13148,3.93347,10.501,0.199638,0.615286,0.0982247,2.00821,1.50699,0.136555,0.827996,0.0354491,71.6235,66.989,0.0123921,1982
4,208,12.7127,7.19918,3.97353,10.5314,0.199249,0.614445,0.0978466,2.00629,1.50618,0.137253,0.828784,0.0339628,71.6055,66.8102,0.0117975,1982
4,209,12.8482,7.26549,4.0128,10.561,0.1988,0.613542,0.097205,2.0041,1.50533,0.138036,0.82961,0.0323538,71.5839,66.6013,0.0111628,1982
4,210,12.981,7.33035,4.05123,10.5897,0.198275,0.612369,0.0964823,2.00158,1.5044,0.138913,0.830449,0.0306375,71.5581,66.359,0.0104943,1982
4,211,13.1109,7.39371,4.0888,10.6176,0.19766,0.611187,0.0956223,1.99867,1.50339,0.139897,0.831274,0.0288296,71.5273,66.0795,0.00979827,1982
4,212,13.2251,7.44938,4.12183,10.642,0.18398,0.57012,0.0927447,1.99563,1.50253,0.140823,0.831909,0.0272684,71.4974,65.8358,0.00920198,1982
5,141,0.396001,0.372075,0.16766,4.25614,0.0697175,0.20636,0.0333714,1.60571,1.23116,0.294887,0.699837,0.00527616,65.5705,40.139,0.00216428,1983
5,142,0.47381,0.432966,0.196976,4.45805,0.0647286,0.191796,0.0430642,1.63975,1.25794,0.283256,0.710869,0.00587467,66.4618,43.0562,0.00254285,1983
5,143,0.560479,0.499049,0.229113,4.65597,0.0715496,0.212229,0.0478718,1.66063,1.27483,0.275984,0.717681,0.00633571,67.0011,45.0195,0.0028378,1983
5,144,0.656886,0.570803,0.26434,4.85123,0.0790313,0.234597,0.0523097,1.67732,1.28872,0.270039,0.723181,0.00678069,67.4327,46.7157,0.00312446,1983
5,145,0.763186,0.648146,0.302656,5.04346,0.0866538,0.257311,0.0572622,1.69064,1.30025,0.265151,0.727644,0.00720525,67.7813,48.1827,0.00339948,1983
5,146,0.879588,0.731056,0.344084,5.23258,0.0944539,0.280509,0.0620039,1.701,1.30976,0.261179,0.731222,0.00759861,68.06,49.4345,0.00365546,1983
5,147,1.00611,0.819388,0.388582,5.41833,0.102288,0.303788,0.0671093,1.70889,1.31764,0.257966,0.734079,0.00795532,68.2819,50.4992,0.00388852,1983
5,148,1.14302,0.913198,0.436209,5.60095,0.110337,0.327741,0.0719578,1.71455,1.32413,0.255425,0.73631,0.00826566,68.4544,51.3891,0.00409209,1983
5,149,1.29067,1.01258,0.487039,5.78071,0.118593,0.352476,0.0770701,1.71822,1.32945,0.253469,0.738008,0.00852338,68.5839,52.122,0.00426189,1983
5,150,1.4495,1.11769,0.541187,5.95797,0.127136,0.378252,0.0817599,1.7201,1.33378,0.252029,0.739248,0.00872345,68.6753,52.7134,0.00439451,1983
5,151,1.62755,1.23365,0.60133,6.14057,0.14208,0.423165,0.0869109,1.71884,1.33615,0.251579,0.739642,0.00877865,68.6928,53.0036,0.00443348,1983
5,152,1.81511,1.35388,0.664114,6.3177,0.149638,0.446011,0.0929245,1.71789,1.33932,0.250855,0.740267,0.0088781,68.7285,53.4044,0.00450107,1983
5,153,2.01364,1.47926,0.730013,6.49116,0.15835,0.472022,0.0975736,1.71512,1.3417,0.250607,0.740493,0.00890026,68.7255,53.6702,0.00451875,1983
5,154,2.22191,1.60894,0.798597,6.66014,0.16637,0.495638,0.101713,1.71062,1.3435,0.250773,0.740376,0.0088505,68.6859,53.8213,0.00449012,1983
5,155,2.43862,1.7421,0.869432,6.82408,0.173619,0.5168,0.105376,1.7043,1.34478,0.251349,0.739923,0.00872774,68.6065,53.8597,0.00441472,1983
5,156,2.64678,1.86843,0.937003,6.97174,0.16937,0.503756,0.108082,1.69609,1.34562,0.252327,0.739139,0.0085342,68.4827,53.7887,0.0042943,1983
5,157,2.85206,1.99165,1.00324,7.10925,0.168935,0.50226,0.109462,1.68539,1.34573,0.25388,0.737874,0.00824577,68.292,53.5496,0.00411401,1983
5,158,3.0541,2.11173,1.06807,7.23767,0.168187,0.500183,0.108775,1.67243,1.34551,0.255871,0.736236,0.00789321,68.0343,53.1884,0.00389404,1983
5,159,3.25267,2.22868,1.13147,7.35796,0.167197,0.497839,0.107045,1.65726,1.34519,0.258234,0.734272,0.0074941,67.6997,52.7225,0.00364606,1983
5,160,3.44755,2.34249,1.19341,7.47089,0.166054,0.495183,0.10458,1.64002,1.34507,0.260875,0.732058,0.00706759,67.2759,52.1732,0.00338248,1983
5,161,3.63844,2.45312,1.25382,7.57707,0.164867,0.492041,0.101831,1.62107,1.34554,0.263647,0.729719,0.0066343,66.75,51.5681,0.00311626,1983
5,162,3.82511,2.56053,1.31267,7.67702,0.163769,0.488349,0.0993432,1.60114,1.34709,0.266319,0.727464,0.00621651,66.1131,50.9437,0.00286088,1983
5,163,4.00743,2.66476,1.36995,7.77126,0.162919,0.484178,0.0976401,1.58147,1.35026,0.268541,0.725621,0.00583848,65.3702,50.3488,0.00263031,1983
5,164,4.18561,2.76599,1.42574,7.86038,0.162487,0.480014,0.0970894,1.56392,1.35548,0.269818,0.724656,0.00552655,64.5589,49.8449,0.00243902,1983
5,165,4.36037,2.86471,1.48029,7.94513,0.162621,0.477035,0.0976527,1.5509,1.36284,0.269538,0.725153,0.0053089,63.7748,49.5038,0.00230192,1983
5,166,4.53295,2.96168,1.53401,8.02642,0.163415,0.476466,0.0989803,1.54495,1.37171,0.267114,0.727672,0.00521471,63.1875,49.4017,0.0022344,1983
5,167,4.70511,3.05791,1.58744,8.1053,0.164903,0.479457,0.10065,1.54802,1.38075,0.262278,0.73245,0.00527223,63.0058,49.6061,0.00225224,1983
5,168,4.87877,3.15451,1.64121,8.18276,0.16726,0.486566,0.102185,1.55703,1.39114,0.255327,0.739185,0.00548844,63.1398,50.0107,0.00233942,1983
5,169,5.05575,3.25249,1.69586,8.25965,0.170625,0.497613,0.103186,1.56805,1.40477,0.246659,0.747488,0.0058528,63.3801,50.4745,0.00247014,1983
5,170,5.23763,3.3527,1.75188,8.33667,0.174919,0.512157,0.103662,1.58098,1.42117,0.236672,0.756966,0.00636263,63.717,50.9959,0.00264563,1983
5,171,5.42579,3.4559,1.8097,8.41432,0.180024,0.529744,0.103923,1.59567,1.43975,0.22582,0.767168,0.00701226,64.1333,51.5709,0.00286685,1983
5,172,5.62137,3.56267,1.86965,8.49298,0.185798,0.549798,0.104285,1.61188,1.45989,0.214562,0.777644,0.00779384,64.6076,52.1933,0.00313454,1983
5,173,5.82521,3.67344,1.93197,8.57287,0.192088,0.571583,0.105072,1.62932,1.48097,0.203312,0.78799,0.00869813,65.1172,52.8556,0.00344922,1983
5,174,6.03777,3.7884,1.9968,8.65404,0.198743,0.594,0.10672,1.64769,1.50243,0.192407,0.797878,0.00971534,65.641,53.5494,0.00381118,1983
5,175,6.25923,3.90761,2.06418,8.73642,0.20562,0.616407,0.109547,1.66664,1.52378,0.182092,0.807072,0.0108356,66.161,54.2651,0.0042204,1983
5,176,6.48964,4.03106,2.13411,8.81992,0.212592,0.638671,0.11344,1.6859,1.54462,0.172524,0.815427,0.0120497,66.6636,54.9938,0.00467652,1983
5,177,6.72892,4.15866,2.20656,8.90437,0.219546,0.660748,0.118041,1.70519,1.56465,0.163783,0.822868,0.0133489,67.1391,55.7265,0.00517885,1983
5,178,6.9769,4.29027,2.28145,8.98962,0.226387,0.682666,0.122942,1.7243,1.58365,0.155892,0.829383,0.0147258,67.5817,56.4554,0.00572631,1983
5,179,7.23335,4.42574,2.35871,9.07549,0.233036,0.704392,0.127765,1.74306,1.60148,0.148829,0.834998,0.0161733,67.9887,57.1737,0.00631742,1983
5,180,7.4979,4.56484,2.43822,9.16179,0.239427,0.725722,0.13227,1.76136,1.61804,0.14255,0.839765,0.017685,68.3593,57.8755,0.00695023,1983
5,181,7.77013,4.7073,2.51983,9.2483,0.245507,0.746543,0.136307,1.77909,1.63329,0.136994,0.843751,0.0192547,68.6945,58.556,0.00762228,1983
5,182,8.04956,4.85286,2.60341,9.33483,0.251237,0.766782,0.139733,1.7962,1.64722,0.132095,0.847029,0.0208761,68.9961,59.2115,0.00833056,1983
5,183,8.33565,5.00121,2.68877,9.42118,0.256586,0.786374,0.142428,1.81265,1.65984,0.127786,0.849671,0.0225425,69.2666,59.8392,0.00907148,1983
5,184,8.62769,5.15196,2.77571,9.50714,0.261531,0.804842,0.144495,1.82844,1.67119,0.124006,0.851748,0.0242466,69.5085,60.4372,0.00984087,1983
5,185,8.92487,5.30469,2.86398,9.59245,0.26606,0.821904,0.146175,1.84357,1.68129,0.120695,0.853325,0.0259805,69.7245,61.004,0.0106338,1983
5,186,9.22647,5.45901,2.95336,9.67694,0.270165,0.837895,0.147419,1.85804,1.69019,0.117802,0.854464,0.0277348,69.9173,61.5392,0.0114446,1983
5,187,9.53186,5.6146,3.04366,9.76047,0.273844,0.853166,0.147919,1.87188,1.69795,0.115281,0.855219,0.0294997,70.0894,62.0425,0.0122672,1983
5,188,9.84044,5.77117,3.13471,9.84291,0.2771,0.868025,0.147378,1.8851,1.7046,0.113092,0.855643,0.0312646,70.243,62.5145,0.013095,1983
5,189,10.1514,5.92827,3.22626,9.92409,0.27994,0.881626,0.146035,1.89775,1.71019,0.111201,0.855781,0.0330178,70.3803,62.9559,0.0139206,1983
5,190,10.4635,6.08538,3.318,10.0038,0.282372,0.89295,0.144691,1.90984,1.71476,0.109578,0.855676,0.0347463,70.5031,63.3675,0.0147362,1983
5,191,10.7759,6.24201,3.40962,10.0818,0.284405,0.902029,0.143796,1.92141,1.71836,0.108199,0.855366,0.0364353,70.613,63.7505,0.0155328,1983
5,192,11.0876,6.39768,3.50086,10.1581,0.286052,0.908891,0.143375,1.93248,1.72101,0.107044,0.854887,0.038069,70.7114,64.1057,0.016301,1983
5,193,11.3977,6.55199,3.59146,10.2324,0.287323,0.913589,0.143406,1.94308,1.72275,0.106095,0.854274,0.0396308,70.7998,64.4346,0.0170312,1983
5,194,11.7053,6.70456,3.68119,10.3047,0.288231,0.916349,0.143796,1.95324,1.72359,0.105341,0.853557,0.0411029,70.8792,64.7383,0.0177132,1983
5,195,12.0098,6.85504,3.76984,10.3748,0.288787,0.917293,0.144439,1.96298,1.72356,0.104769,0.852764,0.0424669,70.9506,65.0183,0.0183365,1983
5,196,12.2885,6.99232,3.85085,10.4379,0.27114,0.859782,0.143224,1.97258,1.7229,0.104229,0.851598,0.0441734,71.0272,65.3527,0.0191229,1983
5,197,12.563,7.12714,3.93052,10.4991,0.270997,0.85692,0.139939,1.9815,1.72112,0.10402,0.850757,0.0452227,71.0834,65.5788,0.019577,1983
5,198,12.8326,7.25921,4.00868,10.5582,0.270555,0.852213,0.14099,1.99004,1.71851,0.103978,0.849919,0.0461023,71.1342,65.7863,0.0199399,1983
5,199,13.0968,7.38826,4.08514,10.6152,0.269788,0.846408,0.142571,2.00063,1.71483,0.104136,0.84907,0.0467942,71.1853,65.9883,0.0201952,1983
5,200,13.355,7.5141,4.15981,10.6702,0.268692,0.840391,0.143609,2.01476,1.71003,0.104516,0.848221,0.0472625,71.2389,66.1912,0.0203204,1983
5,201,13.6071,7.63661,4.23259,10.7231,0.267332,0.834365,0.143666,2.0312,1.70431,0.105086,0.847399,0.0475154,71.293,66.394,0.0203235,1983
5,202,13.8528,7.75574,4.30344,10.774,0.265766,0.828544,0.142714,2.04884,1.69788,0.105818,0.846631,0.0475506,71.3456,66.5945,0.0202086,1983
5,203,14.0919,7.87142,4.37233,10.8229,0.26405,0.82308,0.140789,2.0668,1.69093,0.106686,0.845947,0.0473669,71.3955,66.7907,0.0199808,1983
5,204,14.3244,7.98365,4.43922,10.8699,0.262233,0.818059,0.137992,2.08439,1.68361,0.107666,0.84537,0.0469642,71.4419,66.9813,0.0196455,1983
5,205,14.5501,8.09237,4.5041,10.9149,0.260359,0.81326,0.134574,2.10113,1.67606,0.108737,0.844919,0.0463437,71.4845,67.1651,0.0192094,1983
5,206,14.7688,8.19755,4.56692,10.9581,0.258466,0.808337,0.130949,2.11671,1.66841,0.109882,0.84461,0.0455084,71.5232,67.3412,0.0186793,1983
5,207,14.9807,8.2992,4.6277,10.9995,0.256586,0.802937,0.127555,2.13098,1.66076,0.111083,0.844454,0.0444635,71.5582,67.509,0.018063,1983
5,208,15.1856,8.39738,4.68645,11.0391,0.254746,0.796729,0.124782,2.14386,1.65319,0.112327,0.844456,0.0432165,71.5896,67.6681,0.0173685,1983
5,209,15.3839,8.49221,4.74324,11.0771,0.252966,0.789449,0.122937,2.15535,1.64578,0.113601,0.844621,0.0417776,71.6177,67.8183,0.0166048,1983
5,210,15.5759,8.58386,4.79818,11.1135,0.251264,0.781349,0.122079,2.16551,1.63857,0.114894,0.844946,0.0401599,71.6428,67.9596,0.0157812,1983
5,211,15.7618,8.67249,4.85135,11.1485,0.249653,0.772874,0.122001,2.17442,1.63162,0.116195,0.845426,0.038379,71.6652,68.092,0.0149074,1983
5,212,15.9256,8.75045,4.89815,11.179,0.231667,0.713749,0.12019,2.18238,1.6251,0.117372,0.845731,0.0368973,71.6894,68.2646,0.0141793,1983
6,141,0.392897,0.36958,0.166471,4.24739,0.0726485,0.19935,0.0345077,2.23861,1.63305,0.159028,0.838509,0.00246372,55.1951,24.6971,0.000533664,1985
6,142,0.469207,0.429371,0.195244,4.4467,0.0674264,0.188413,0.0434502,2.26664,1.65911,0.152585,0.844728,0.00268701,57.4513,27.8424,0.000651721,1985
6,143,0.554896,0.494802,0.227046,4.64382,0.0742389,0.210013,0.0483001,2.27381,1.67102,0.149353,0.847749,0.00289787,59.0316,30.4055,0.000764483,1985
6,144,0.650996,0.566428,0.262191,4.83983,0.0818826,0.233859,0.0526998,2.27207,1.67742,0.147252,0.849616,0.00313242,60.4051,32.9218,0.00089133,1985
6,145,0.757573,0.644071,0.300636,5.03374,0.0896734,0.257841,0.0578637,2.26282,1.67921,0.146111,0.850495,0.00339378,61.6066,35.3848,0.00103393,1985
6,146,0.874898,0.727722,0.342417,5.22527,0.0977194,0.282422,0.063238,2.24704,1.67699,0.145857,0.850461,0.00368239,62.652,37.7624,0.00119242,1985
6,147,1.00387,0.817826,0.387795,5.41517,0.106391,0.308965,0.0687752,2.22592,1.67152,0.146364,0.849636,0.00400073,63.5665,40.0488,0.00136803,1985
6,148,1.14614,0.915327,0.437292,5.60494,0.116128,0.339105,0.0738019,2.2005,1.66344,0.147528,0.848121,0.00435102,64.3697,42.2378,0.00156186,1985
6,149,1.30342,1.02113,0.491419,5.79559,0.12695,0.372871,0.0794097,2.17182,1.65342,0.149236,0.846027,0.00473728,65.0815,44.3353,0.00177602,1985
6,150,1.47676,1.13567,0.55046,5.98711,0.13852,0.408917,0.084642,2.1407,1.64196,0.151396,0.843441,0.00516333,65.7164,46.3425,0.00201254,1985
6,151,1.67517,1.26452,0.617375,6.18716,0.157271,0.466049,0.0907908,2.10638,1.62833,0.154357,0.840059,0.00558374,66.2173,48.0537,0.0022451,1985
6,152,1.88815,1.40047,0.688497,6.38341,0.168,0.499505,0.097379,2.07296,1.61558,0.15708,0.836814,0.00610609,66.7478,49.9274,0.0025356,1985
6,153,2.11771,1.54462,0.76445,6.57756,0.180308,0.53723,0.103218,2.03866,1.60223,0.160142,0.833193,0.00666554,67.2108,51.6562,0.00284671,1985
6,154,2.36221,1.69579,0.844647,6.76808,0.191757,0.571792,0.108971,2.00416,1.58871,0.163431,0.829304,0.00726471,67.6194,53.2575,0.00318005,1985
6,155,2.61961,1.85261,0.92838,6.95363,0.202057,0.602341,0.114572,1.96994,1.57525,0.166885,0.825217,0.00789809,67.9787,54.7278,0.00353277,1985
6,156,2.88784,2.01376,1.01497,7.13329,0.211174,0.628918,0.119918,1.93641,1.56211,0.170432,0.821009,0.00855848,68.2934,56.0682,0.00390126,1985
6,157,3.16483,2.17803,1.10375,7.30642,0.219053,0.651546,0.124571,1.90401,1.54949,0.173995,0.816767,0.00923792,68.5689,57.2843,0.00428164,1985
6,158,3.44882,2.34441,1.19416,7.47276,0.225796,0.670819,0.128618,1.87311,1.5376,0.177492,0.812581,0.00992761,68.8101,58.3843,0.00466979,1985
6,159,3.71711,2.49982,1.27905,7.62089,0.217185,0.645365,0.131266,1.84404,1.52662,0.180838,0.808543,0.0106186,69.0217,59.3783,0.00506165,1985
6,160,3.98032,2.65079,1.36189,7.75878,0.215311,0.640995,0.131899,1.81691,1.51651,0.184043,0.804697,0.01126,69.1956,60.2325,0.00542938,1985
6,161,4.23873,2.79768,1.44282,7.88781,0.213546,0.637342,0.130417,1.7922,1.50757,0.186953,0.80118,0.011867,69.3458,60.9947,0.00578269,1985
6,162,4.49256,2.94078,1.52197,8.00906,0.212011,0.634105,0.128662,1.77018,1.49993,0.189481,0.798085,0.0124339,69.4768,61.6797,0.00611938,1985
6,163,4.74192,3.08029,1.59941,8.1234,0.210801,0.630949,0.127525,1.75109,1.49368,0.191554,0.795491,0.012955,69.5919,62.2991,0.00643696,1985
6,164,4.98719,3.21654,1.67528,8.23163,0.209997,0.628353,0.127302,1.73515,1.48892,0.193107,0.793469,0.0134244,69.6936,62.8618,0.00673267,1985
6,165,5.22907,3.35003,1.74985,8.33463,0.209666,0.627157,0.127643,1.72253,1.48568,0.194084,0.792078,0.0138372,69.7839,63.3756,0.00700391,1985
6,166,5.46842,3.48131,1.8234,8.43318,0.209865,0.62761,0.128159,1.7134,1.48403,0.19444,0.79137,0.0141895,69.8648,63.8472,0.00724829,1985
6,167,5.70615,3.61094,1.89622,8.528,0.210642,0.629944,0.12869,1.70792,1.48399,0.194135,0.791387,0.0144782,69.9375,64.2821,0.0074634,1985
6,168,5.94299,3.73936,1.96856,8.61963,0.211861,0.633777,0.129043,1.70917,1.4855,0.192588,0.792704,0.0147086,70.0209,64.6949,0.00763912,1985
6,169,6.17932,3.86684,2.04054,8.70844,0.213334,0.638499,0.129052,1.71931,1.48836,0.1894,0.795714,0.0148861,70.1285,65.0953,0.00776685,1985
6,170,6.41544,3.99355,2.11226,8.79474,0.21501,0.643947,0.128713,1.7367,1.49229,0.184896,0.800098,0.0150062,70.2525,65.4806,0.00784651,1985
6,171,6.65161,4.11967,2.18381,8.87876,0.216824,0.650065,0.128054,1.75935,1.49702,0.179451,0.805486,0.0150625,70.3848,65.8487,0.00787831,1985
6,172,6.88801,4.24533,2.25527,8.96072,0.218716,0.656767,0.12706,1.78535,1.50223,0.173437,0.811515,0.0150483,70.5186,66.1984,0.0078628,1985
6,173,7.12476,4.3706,2.32665,9.04077,0.220627,0.663919,0.125739,1.81301,1.50768,0.167177,0.817865,0.0149582,70.6485,66.5285,0.00780079,1985
6,174,7.36168,4.49542,2.39793,9.11895,0.222515,0.670692,0.124435,1.84103,1.51313,0.160926,0.824286,0.0147881,70.771,66.8388,0.00769341,1985
6,175,7.59848,4.61964,2.46901,9.19528,0.224344,0.676607,0.123656,1.86843,1.51842,0.154872,0.830592,0.0145358,70.884,67.1291,0.00754188,1985
6,176,7.83496,4.74319,2.53985,9.2698,0.226093,0.682032,0.123411,1.8946,1.52345,0.149138,0.836662,0.0142006,70.9866,67.3996,0.00734772,1985
6,177,8.07104,4.86605,2.61043,9.34258,0.22775,0.687381,0.123315,1.91915,1.52815,0.143795,0.842421,0.0137842,71.0787,67.6507,0.00711293,1985
6,178,8.30673,4.98823,2.68074,9.4137,0.229308,0.693007,0.122964,1.9419,1.53248,0.138879,0.847831,0.0132897,71.1607,67.8833,0.00683999,1985
6,179,8.54189,5.10968,2.75076,9.48321,0.230767,0.69843,0.122365,1.96278,1.53644,0.134397,0.852882,0.0127218,71.2335,68.0983,0.00653175,1985
6,180,8.77626,5.23029,2.82042,9.55111,0.232129,0.703124,0.121921,1.98181,1.54002,0.130338,0.857576,0.0120861,71.2978,68.2967,0.00619133,1985
6,181,9.00966,5.34999,2.88967,9.61743,0.233398,0.707361,0.121754,1.99909,1.54325,0.126683,0.861928,0.0113892,71.3544,68.4794,0.00582213,1985
6,182,9.242,5.46874,2.95849,9.68221,0.23458,0.711402,0.121665,2.01472,1.54614,0.123405,0.865956,0.0106386,71.4044,68.6473,0.00542796,1985
6,183,9.4732,5.58652,3.02685,9.74551,0.235679,0.7155,0.121432,2.02881,1.54873,0.120477,0.869681,0.00984265,71.4484,68.8015,0.005013,1985
6,184,9.70317,5.70331,3.09474,9.80737,0.236703,0.719558,0.120988,2.04149,1.55104,0.117868,0.873121,0.00901039,71.4872,68.9429,0.00458175,1985
6,185,9.93179,5.81905,3.16212,9.86781,0.237654,0.723282,0.120497,2.05288,1.55308,0.115552,0.876296,0.00815158,71.5213,69.0724,0.004139,1985
6,186,10.1589,5.9337,3.22897,9.92686,0.238538,0.726605,0.120118,2.06309,1.5549,0.113503,0.87922,0.00727653,71.5515,69.1909,0.00368984,1985
6,187,10.3844,6.04719,3.29523,9.98455,0.239359,0.729451,0.119929,2.07223,1.5565,0.111698,0.881906,0.00639619,71.5781,69.299,0.00323962,1985
6,188,10.6082,6.1595,3.36089,10.0409,0.240118,0.731762,0.11999,2.08037,1.5579,0.110115,0.884363,0.00552205,71.6015,69.3974,0.00279399,1985
6,189,10.8301,6.27057,3.42592,10.0959,0.240818,0.733686,0.120267,2.08761,1.55913,0.108737,0.886597,0.00466619,71.6221,69.4868,0.00235885,1985
6,190,11.0501,6.38039,3.4903,10.1497,0.241461,0.735394,0.120634,2.09402,1.56019,0.107547,0.888612,0.0038412,71.6402,69.5678,0.00194036,1985
6,191,11.2681,6.48893,3.55402,10.2022,0.242046,0.736893,0.121016,2.09964,1.5611,0.106533,0.890407,0.00306014,71.6561,69.6408,0.0015449,1985
6,192,11.484,6.59619,3.61705,10.2534,0.242575,0.738172,0.121407,2.10453,1.56187,0.105682,0.891981,0.00233653,71.67,69.7063,0.00117909,1985
6,193,11.6978,6.70212,3.67938,10.3035,0.243046,0.739254,0.121795,2.10873,1.5625,0.104987,0.893329,0.00168426,71.682,69.7647,0.000849726,1985
6,194,11.9095,6.80674,3.74101,10.3524,0.243459,0.74055,0.121996,2.11227,1.56301,0.104441,0.894441,0.00111757,71.6924,69.8163,0.000563798,1985
6,195,12.1189,6.91003,3.80193,10.4002,0.24381,0.742193,0.121784,2.11517,1.56338,0.10404,0.895309,0.000651002,71.7011,69.8614,0.000328472,1985
6,196,12.3099,7.00401,3.85741,10.4433,0.22893,0.697566,0.119481,2.1175,1.56369,0.103752,0.895945,0.000302855,71.712,69.9258,0.000152914,1985
6,197,12.4987,7.09675,3.91222,10.4854,0.229132,0.698602,0.115266,2.11911,1.56381,0.103643,0.896279,7.81593e-05,71.7174,69.956,3.94872e-05,1985
6,198,12.6853,7.18822,3.96633,10.5265,0.229271,0.698848,0.114654,2.12007,1.5638,0.103681,0.896319,0,71.7215,69.9802,0,1985
6,199,12.8692,7.2782,4.0196,10.5666,0.229142,0.697601,0.11473,2.11769,1.56269,0.104869,0.895118,1.33079e-05,71.726,69.9971,1.08424e-05,1985
6,200,13.0496,7.36628,4.0718,10.6056,0.228576,0.694646,0.114913,2.10972,1.55967,0.108039,0.891908,5.2447e-05,71.7323,70.0043,4.28543e-05,1985
6,201,13.2257,7.45215,4.12274,10.6432,0.227638,0.690499,0.114896,2.09694,1.55507,0.112886,0.886998,0.000116006,71.74,70.0025,9.51909e-05,1985
6,202,13.3972,7.53558,4.17227,10.6795,0.226399,0.685648,0.114493,2.08025,1.54925,0.11906,0.880738,0.000202346,71.749,69.9923,0.000166909,1985
6,203,13.5635,7.61638,4.22028,10.7144,0.224926,0.680588,0.113539,2.06055,1.54258,0.126207,0.873483,0.000309712,71.7586,69.9736,0.000256968,1985
6,204,13.7244,7.69443,4.26669,10.7479,0.223278,0.675505,0.111975,2.03866,1.53534,0.134003,0.865561,0.000436328,71.7688,69.9466,0.000364228,1985
6,205,13.8796,7.76963,4.31144,10.7799,0.221499,0.670289,0.109955,2.01531,1.5278,0.142171,0.857249,0.000580466,71.779,69.911,0.000487463,1985
6,206,14.029,7.8419,4.35448,10.8105,0.219623,0.664872,0.107697,1.99106,1.52009,0.150489,0.848771,0.000740485,71.7892,69.8667,0.000625358,1985
6,207,14.1725,7.91121,4.39578,10.8396,0.217668,0.659125,0.105389,1.96635,1.51234,0.158792,0.840293,0.000914854,71.7991,69.8133,0.000776519,1985
6,208,14.31,7.97752,4.43532,10.8673,0.215644,0.652903,0.103197,1.94152,1.50456,0.166967,0.83193,0.00110215,71.8086,69.7504,0.00093948,1985
6,209,14.4414,8.04087,4.47311,10.8936,0.213549,0.645982,0.101281,1.91678,1.49676,0.174943,0.823756,0.00130107,71.8176,69.6774,0.00111271,1985
6,210,14.5669,8.10126,4.50917,10.9186,0.211378,0.638299,0.0997311,1.89227,1.4889,0.182682,0.815808,0.0015104,71.826,69.5937,0.00129463,1985
6,211,14.6864,8.15871,4.54348,10.9422,0.209118,0.629907,0.0985153,1.86806,1.48092,0.190176,0.808095,0.00172902,71.8339,69.4985,0.00148359,1985
6,212,14.788,8.20751,4.57265,10.9622,0.193065,0.579746,0.0957843,1.84434,1.47285,0.197359,0.800661,0.0019807,71.8434,69.4253,0.00169998,1985
7,141,0.400112,0.375377,0.169234,4.26765,0.0726766,0.215725,0.0375612,1.00419,2.07027,0.0983442,0.901016,0.000640275,39.7307,43.2485,0.000277753,1987
7,142,0.478142,0.43635,0.198606,4.46868,0.0653443,0.192324,0.0451083,1.04247,2.04534,0.104954,0.894351,0.000695613,46.9511,46.2248,0.000325432,1987
7,143,0.564804,0.502343,0.230716,4.66535,0.0724642,0.212249,0.0501037,1.09011,2.02489,0.109564,0.889702,0.000733711,52.3453,48.1083,0.000359542,1987
7,144,0.661833,0.574478,0.266146,4.86076,0.0807374,0.235995,0.0552768,1.14603,2.00858,0.112672,0.886556,0.000771527,56.6504,49.7254,0.000392495,1987
7,145,0.770145,0.653197,0.305161,5.05545,0.0895637,0.261728,0.0607013,1.20897,1.99563,0.114676,0.884514,0.000809213,59.9998,51.1346,0.00042451,1987
7,146,0.890503,0.738806,0.347961,5.24948,0.09887,0.289105,0.066394,1.27747,1.98498,0.115955,0.883199,0.000845958,62.5646,52.3579,0.000455128,1987
7,147,1.02349,0.83148,0.394683,5.44266,0.108578,0.317744,0.0723616,1.35008,1.97563,0.116797,0.882321,0.000881322,64.5217,53.4226,0.000484148,1987
7,148,1.16935,0.931161,0.445344,5.63441,0.118515,0.34694,0.0772772,1.42535,1.96676,0.117426,0.881659,0.000914363,66.0147,54.3402,0.000510982,1987
7,149,1.32792,1.03754,0.499829,5.82392,0.128442,0.375852,0.0835496,1.50191,1.95772,0.118002,0.881054,0.000944201,67.1579,55.1219,0.000535056,1987
7,150,1.49922,1.15044,0.558091,6.01083,0.138519,0.404878,0.0900333,1.57845,1.94801,0.11864,0.88039,0.000969953,68.0384,55.7763,0.000555781,1987
7,151,1.69125,1.27491,0.622782,6.20266,0.15536,0.453012,0.0968202,1.65314,1.93656,0.11965,0.879368,0.000981456,68.6831,56.1615,0.000565836,1987
7,152,1.89288,1.40346,0.69007,6.38759,0.16373,0.476111,0.104174,1.72613,1.92465,0.120573,0.878426,0.00100026,69.2355,56.6431,0.000580843,1987
7,153,2.10743,1.53817,0.76105,6.56914,0.174732,0.5062,0.110322,1.79546,1.911,0.121794,0.877194,0.00101229,69.6669,57.0014,0.000590633,1987
7,154,2.33497,1.67896,0.835716,6.74747,0.186021,0.536612,0.117358,1.86012,1.89548,0.123326,0.875655,0.0010189,70.0106,57.2682,0.000596198,1987
7,155,2.57641,1.8263,0.91433,6.92329,0.198177,0.569027,0.124454,1.91909,1.87788,0.125216,0.873764,0.00102031,70.2871,57.4529,0.000597716,1987
7,156,2.83245,1.98049,0.997091,7.09704,0.211174,0.603082,0.130655,1.9714,1.85803,0.127506,0.871476,0.00101715,70.5119,57.5673,0.000595652,1987
7,157,3.10308,2.14141,1.08395,7.26863,0.224629,0.63726,0.137537,2.0162,1.83578,0.130245,0.868745,0.00101014,70.6962,57.6218,0.000590527,1987
7,158,3.38796,2.30874,1.17478,7.43781,0.238482,0.670998,0.143533,2.05273,1.81106,0.133481,0.865519,0.00100003,70.8484,57.6248,0.000582868,1987
7,159,3.68692,2.4823,1.26949,7.60452,0.252868,0.704609,0.149309,2.08043,1.78387,0.137263,0.86175,0.000987763,70.9748,57.5859,0.000573341,1987
7,160,3.99971,2.66187,1.36798,7.76868,0.267796,0.737954,0.154521,2.09906,1.75441,0.141614,0.857411,0.000974649,71.0802,57.5184,0.000562823,1987
7,161,4.32489,2.84654,1.46977,7.92969,0.282635,0.768706,0.158891,2.10879,1.72316,0.146522,0.852515,0.000962295,71.1686,57.4389,0.000552368,1987
7,162,4.6591,3.0344,1.57382,8.08619,0.296126,0.793041,0.161601,2.11034,1.69091,0.15191,0.847138,0.000952502,71.2428,57.3661,0.000543109,1987
7,163,4.99676,3.22235,1.67839,8.23617,0.306603,0.80661,0.162303,2.10513,1.6589,0.157591,0.841462,0.000947239,71.3049,57.3202,0.000536231,1987
7,164,5.30218,3.39082,1.77252,8.36553,0.290768,0.750616,0.16039,2.09537,1.62887,0.163226,0.835825,0.000948657,71.3564,57.3232,0.000533003,1987
7,165,5.58837,3.54748,1.86037,8.48188,0.283815,0.719667,0.156812,2.08362,1.60274,0.168403,0.830641,0.000955799,71.396,57.3499,0.000532597,1987
7,166,5.85987,3.69508,1.9434,8.58829,0.278859,0.6973,0.15236,2.07355,1.58325,0.172328,0.826699,0.000973657,71.4271,57.4676,0.000538393,1987
7,167,6.12281,3.83716,2.02356,8.68795,0.276527,0.686701,0.149469,2.06852,1.57289,0.174207,0.824787,0.00100551,71.4513,57.7183,0.000552815,1987
7,168,6.38073,3.97573,2.10196,8.78272,0.275649,0.682961,0.147845,2.0664,1.56775,0.174887,0.824032,0.00108139,71.4709,58.0318,0.000593409,1987
7,169,6.63376,4.11095,2.17865,8.87301,0.274709,0.67957,0.146123,2.06336,1.56254,0.175657,0.823111,0.00123165,71.4874,58.319,0.000677025,1987
7,170,6.88197,4.24292,2.25368,8.95917,0.27372,0.676444,0.143716,2.05952,1.55731,0.176504,0.822038,0.00145878,71.5013,58.5833,0.000804455,1987
7,171,7.12531,4.37169,2.32706,9.04146,0.272692,0.673292,0.140824,2.05498,1.55207,0.177414,0.820821,0.00176436,71.5129,58.8274,0.000975927,1987
7,172,7.36361,4.49723,2.39875,9.12008,0.271636,0.669794,0.137838,2.04984,1.54685,0.178378,0.819473,0.00214908,71.5225,59.0534,0.00119113,1987
7,173,7.59662,4.61946,2.46869,9.19518,0.270561,0.665657,0.135147,2.04419,1.54167,0.179385,0.818002,0.00261271,71.5303,59.2631,0.00144921,1987
7,174,7.82405,4.73829,2.53682,9.26687,0.269474,0.66062,0.133086,2.03809,1.53657,0.180428,0.816418,0.00315408,71.5364,59.4578,0.00174886,1987
7,175,8.04571,4.85366,2.60309,9.3353,0.268382,0.654909,0.13171,2.03163,1.53155,0.181497,0.814732,0.00377107,71.541,59.6388,0.00208823,1987
7,176,8.26158,4.96562,2.66751,9.40063,0.267293,0.64897,0.130739,2.02487,1.52663,0.182586,0.812954,0.00446066,71.5442,59.8072,0.0024651,1987
7,177,8.47178,5.07426,2.73012,9.46306,0.266213,0.64322,0.129787,2.01788,1.52184,0.183686,0.811095,0.005219,71.5461,59.9642,0.00287683,1987
7,178,8.67654,5.17975,2.79102,9.52279,0.265148,0.638026,0.128496,2.01072,1.5172,0.184789,0.809169,0.00604139,71.5468,60.1109,0.00332048,1987
7,179,8.87599,5.28219,2.85024,9.57999,0.264105,0.633101,0.126868,2.00347,1.51271,0.185888,0.80719,0.00692242,71.5464,60.2485,0.00379279,1987
7,180,9.07022,5.38166,2.90782,9.6348,0.263089,0.628246,0.125162,1.99616,1.50841,0.186975,0.80517,0.00785584,71.5449,60.3778,0.0042902,1987
7,181,9.25942,5.47829,2.96384,9.68738,0.262103,0.62384,0.123324,1.98888,1.5043,0.188041,0.803124,0.00883466,71.5424,60.4997,0.00480885,1987
7,182,9.44386,5.57223,3.01837,9.73788,0.26115,0.620236,0.121051,1.98168,1.50039,0.189081,0.801068,0.00985122,71.539,60.6148,0.00534466,1987
7,183,9.62382,5.66366,3.07151,9.78647,0.260234,0.617717,0.118076,1.97461,1.49672,0.190084,0.799018,0.0108973,71.5347,60.724,0.00589337,1987
7,184,9.79939,5.75265,3.12328,9.83324,0.259355,0.615678,0.114644,1.96775,1.49328,0.191044,0.796992,0.0119642,71.5296,60.8279,0.00645053,1987
7,185,9.97057,5.83921,3.17371,9.87825,0.258513,0.61343,0.111413,1.96114,1.49009,0.191951,0.795007,0.0130423,71.5237,60.927,0.00701144,1987
7,186,10.1374,5.92339,3.2228,9.92159,0.257708,0.611027,0.10867,1.95485,1.48715,0.192798,0.793081,0.0141218,71.5172,61.0217,0.00757113,1987
7,187,10.3,6.00526,3.2706,9.96332,0.256936,0.608521,0.10639,1.94894,1.48449,0.193574,0.791233,0.0151922,71.5099,61.1122,0.0081245,1987
7,188,10.4586,6.08492,3.31714,10.0036,0.256193,0.605926,0.104547,1.94347,1.4821,0.194272,0.789486,0.0162427,71.5022,61.199,0.00866635,1987
7,189,10.6132,6.16245,3.36249,10.0424,0.255476,0.603054,0.103235,1.93851,1.48,0.194879,0.787858,0.0172624,71.494,61.2824,0.00919134,1987
7,190,10.7641,6.238,3.40672,10.0799,0.254777,0.599816,0.10257,1.93413,1.47818,0.195386,0.786373,0.0182402,71.4854,61.3628,0.00969407,1987
7,191,10.9116,6.31169,3.4499,10.1161,0.254091,0.596407,0.102501,1.93038,1.47666,0.195781,0.785054,0.0191647,71.4766,61.4405,0.0101691,1987
7,192,11.0559,6.38366,3.49211,10.1513,0.253408,0.593008,0.102894,1.92734,1.47542,0.196052,0.783923,0.0200248,71.4678,61.5159,0.0106108,1987
7,193,11.1973,6.45405,3.53343,10.1854,0.252722,0.589844,0.103597,1.92507,1.47448,0.196187,0.783004,0.0208092,71.4592,61.5892,0.0110136,1987
7,194,11.336,6.52301,3.57394,10.2185,0.252024,0.587554,0.104234,1.92363,1.47383,0.196172,0.782321,0.0215065,71.4509,61.6607,0.0113719,1987
7,195,11.4724,6.5907,3.61373,10.2508,0.251306,0.586416,0.104447,1.92311,1.47346,0.195997,0.781897,0.0221055,71.4433,61.7308,0.01168,1987
7,196,11.5958,6.65188,3.64973,10.2798,0.235124,0.550365,0.102749,1.92418,1.47387,0.195337,0.781829,0.0228335,71.4435,61.9103,0.0120779,1987
7,197,11.7177,6.71221,3.68524,10.3083,0.234387,0.550365,0.0998297,1.92561,1.47404,0.194826,0.78198,0.0231941,71.4376,61.972,0.0122627,1987
7,198,11.8383,6.77182,3.72036,10.3362,0.233623,0.550473,0.0997762,1.92814,1.47448,0.194123,0.782454,0.0234227,71.4331,62.0335,0.0123796,1987
7,199,11.9578,6.83078,3.75512,10.3636,0.23279,0.550786,0.100069,1.93128,1.47504,0.193344,0.78314,0.0235166,71.4292,62.0802,0.0124231,1987
7,200,12.076,6.88906,3.7895,10.3906,0.231834,0.55136,0.100173,1.9345,1.47551,0.192622,0.783909,0.0234688,71.4245,62.0923,0.012385,1987
7,201,12.1929,6.94664,3.82348,10.417,0.230762,0.551997,0.100008,1.9378,1.47593,0.191945,0.784764,0.0232912,71.4192,62.0734,0.0122723,1987
7,202,12.3085,7.00349,3.85706,10.443,0.229578,0.552454,0.0997713,1.94118,1.47629,0.191308,0.785702,0.0229903,71.4133,62.025,0.0120892,1987
7,203,12.4228,7.0596,3.89022,10.4686,0.228281,0.552518,0.0996659,1.94465,1.4766,0.190707,0.78672,0.022573,71.4068,61.9476,0.0118401,1987
7,204,12.5356,7.11497,3.92295,10.4936,0.226874,0.552384,0.0996908,1.9482,1.47687,0.190139,0.787814,0.0220466,71.3996,61.8417,0.0115297,1987
7,205,12.647,7.16956,3.95525,10.5182,0.225358,0.552292,0.0996666,1.95183,1.4771,0.189601,0.788981,0.0214184,71.3919,61.7074,0.0111626,1987
7,206,12.7569,7.22336,3.9871,10.5422,0.223732,0.552192,0.0995191,1.95553,1.4773,0.189091,0.790213,0.020696,71.3836,61.5445,0.0107439,1987
7,207,12.8653,7.27635,4.01849,10.5658,0.222,0.552017,0.0992904,1.9593,1.47747,0.188608,0.791505,0.0198872,71.3748,61.3526,0.0102786,1987
7,208,12.9721,7.32852,4.04941,10.5889,0.220161,0.551715,0.099028,1.96312,1.47761,0.188152,0.792848,0.0190003,71.3655,61.1311,0.00977219,1987
7,209,13.0773,7.37984,4.07984,10.6116,0.218218,0.551476,0.0986614,1.96698,1.47773,0.187723,0.794234,0.0180438,71.3557,60.8793,0.00922999,1987
7,210,13.1808,7.43028,4.10976,10.6337,0.216174,0.551323,0.0981037,1.97088,1.47783,0.187321,0.795653,0.0170264,71.3454,60.5962,0.00865766,1987
7,211,13.2825,7.47982,4.13916,10.6553,0.214031,0.551018,0.0974447,1.97479,1.47792,0.186948,0.797095,0.0159573,71.3348,60.2809,0.00806094,1987
7,212,13.3728,7.52374,4.16524,10.6744,0.198007,0.514821,0.0952011,1.97957,1.47863,0.186247,0.798741,0.0150117,71.333,60.0696,0.00754389,1987
8,141,0.39594,0.372027,0.167637,4.25597,0.0689912,0.206258,0.0335076,1.75805,1.59778,0.117844,0.882138,1.79584e-05,43.8639,31.8282,2.59234e-05,1991
8,142,0.472532,0.43197,0.196496,4.45491,0.0631872,0.189066,0.0432503,1.7569,1.59894,0.119997,0.879973,2.94925e-05,46.8921,34.6886,3.53484e-05,1991
8,143,0.557541,0.496819,0.228027,4.6496,0.0696176,0.208533,0.048031,1.75147,1.59672,0.123901,0.876054,4.46282e-05,48.9839,36.5826,4.61799e-05,1991
8,144,0.652359,0.567447,0.262691,4.84249,0.0770212,0.231069,0.0528677,1.74397,1.59317,0.128817,0.871118,6.4358e-05,50.837,38.2139,5.99123e-05,1991
8,145,0.757786,0.644232,0.300714,5.03413,0.084949,0.25535,0.0573791,1.73464,1.58851,0.134667,0.865244,8.948e-05,52.5005,39.6185,7.71518e-05,1991
8,146,0.874457,0.727415,0.342262,5.2246,0.0933068,0.281017,0.0624145,1.72358,1.58289,0.141408,0.858471,0.000120848,53.9955,40.8037,9.84939e-05,1991
8,147,1.00281,0.817097,0.387426,5.41369,0.101989,0.307651,0.0671821,1.71088,1.57644,0.148993,0.850847,0.00015945,55.3481,41.7856,0.000124644,1991
8,148,1.14277,0.913031,0.436123,5.60063,0.110689,0.334175,0.0723809,1.69659,1.56923,0.157404,0.84239,0.000206318,56.5703,42.5623,0.000156272,1991
8,149,1.29407,1.01486,0.48821,5.7847,0.119286,0.360198,0.0772194,1.68068,1.56131,0.16663,0.833107,0.000262545,57.6726,43.129,0.000194036,1991
8,150,1.45636,1.12223,0.543525,5.96536,0.127723,0.385573,0.0820239,1.66312,1.55269,0.176673,0.822998,0.000329316,58.6663,43.4802,0.000238587,1991
8,151,1.63691,1.23973,0.604486,6.1498,0.142056,0.428473,0.0872272,1.64281,1.5424,0.187967,0.811628,0.000404812,59.4346,43.3946,0.000287052,1991
8,152,1.82515,1.3603,0.667472,6.32685,0.148597,0.447584,0.0932544,1.62193,1.53253,0.199603,0.799899,0.000497268,60.2903,43.3558,0.000347651,1991
8,153,2.02209,1.48458,0.732815,6.4983,0.155988,0.468896,0.0977483,1.59892,1.52165,0.212209,0.787186,0.000604615,61.051,43.0397,0.000416581,1991
8,154,2.22615,1.61158,0.799991,6.66347,0.162407,0.487133,0.101069,1.57362,1.50964,0.225853,0.773418,0.000729242,61.7388,42.4446,0.000494618,1991
8,155,2.4354,1.74013,0.868381,6.82171,0.167556,0.50165,0.103006,1.5457,1.49615,0.240711,0.758416,0.000873773,62.3622,41.5403,0.000582068,1991
8,156,2.62118,1.85292,0.9287,6.95399,0.153331,0.458305,0.103412,1.51471,1.48068,0.257056,0.741902,0.00104166,62.9288,40.2872,0.000679077,1991
8,157,2.79533,1.95761,0.984936,7.07187,0.14707,0.438833,0.0994684,1.47897,1.46142,0.275848,0.72292,0.00123172,63.3854,38.4946,0.000779562,1991
8,158,2.95583,2.05328,1.03652,7.17581,0.139473,0.415308,0.0942415,1.43825,1.43783,0.29752,0.701027,0.00145279,63.786,36.202,0.000885622,1991
8,159,3.10067,2.13898,1.08289,7.26611,0.130559,0.38771,0.0879097,1.39157,1.40851,0.323099,0.675187,0.00171407,64.1408,33.3571,0.000996396,1991
8,160,3.228,2.21385,1.1235,7.34296,0.12046,0.356301,0.0805944,1.33793,1.37183,0.354087,0.643884,0.0020293,64.4576,29.9131,0.00111084,1991
8,161,3.33647,2.2773,1.15801,7.40669,0.109555,0.322041,0.0725419,1.27677,1.32644,0.392622,0.604959,0.00241884,64.7422,25.8511,0.00122778,1991
8,162,3.4259,2.32938,1.18639,7.45808,0.0986467,0.287155,0.0642203,1.20911,1.27253,0.441551,0.555537,0.0029117,64.9999,21.2186,0.00134598,1991
8,163,3.49813,2.37131,1.20927,7.49888,0.0891315,0.255683,0.0564164,1.13951,1.21408,0.504041,0.492414,0.003545,65.2358,16.1864,0.00146443,1991
8,164,3.55793,2.40592,1.22818,7.53218,0.0829036,0.233247,0.0502674,1.07719,1.16038,0.58173,0.413918,0.00435242,65.4565,11.1138,0.00158276,1991
8,165,3.61249,2.43743,1.24542,7.56221,0.0814535,0.224701,0.046858,1.03248,1.12247,0.669566,0.325111,0.00532267,65.6705,6.58372,0.00170171,1991
8,166,3.66811,2.46949,1.26297,7.59249,0.0838879,0.228453,0.0462217,1.00887,1.10436,0.747398,0.246286,0.00631556,65.8874,3.35037,0.00182332,1991
8,167,3.72551,2.5025,1.28106,7.62339,0.0860442,0.233614,0.0466863,1.00161,1.10101,0.77989,0.213092,0.00701801,66.1137,2.16047,0.00194978,1991
8,168,3.78121,2.53447,1.2986,7.65304,0.0847712,0.231971,0.0463864,1.00731,1.1108,0.73771,0.254992,0.00729856,66.3627,3.83852,0.0021277,1991
8,169,3.83757,2.56676,1.31632,7.68273,0.0842569,0.234978,0.046298,1.0317,1.1419,0.645519,0.347119,0.00736149,66.6362,8.31888,0.00239968,1991
8,170,3.90392,2.60469,1.33717,7.71727,0.0897492,0.256324,0.0488593,1.07815,1.19784,0.550778,0.44178,0.00744233,66.9254,14.5029,0.00276324,1991
8,171,3.98894,2.65318,1.36384,7.76093,0.101218,0.295024,0.0547613,1.13573,1.26637,0.47407,0.518237,0.00769344,67.2288,21.2994,0.00322053,1991
8,172,4.09717,2.71473,1.39775,7.81554,0.116022,0.34308,0.062945,1.19004,1.33118,0.416801,0.575037,0.00816203,67.5435,27.9495,0.0037765,1991
8,173,4.22944,2.78967,1.4391,7.8809,0.131704,0.393325,0.0719367,1.23409,1.38416,0.374775,0.616374,0.00885021,67.8635,34.0418,0.00443665,1991
8,174,4.38432,2.87705,1.48742,7.95559,0.146723,0.441258,0.0806272,1.26747,1.42462,0.343684,0.646567,0.0097493,68.1806,39.4079,0.00520587,1991
8,175,4.55926,2.97527,1.54184,8.03768,0.160307,0.48459,0.088438,1.29225,1.45474,0.320276,0.668874,0.0108502,68.4873,44.0214,0.00608765,1991
8,176,4.75131,3.08254,1.60143,8.12521,0.172177,0.522541,0.095151,1.31078,1.47709,0.302287,0.685568,0.012145,68.7777,47.9294,0.00708379,1991
8,177,4.95758,3.19712,1.66524,8.2164,0.182327,0.555142,0.100733,1.32493,1.49379,0.288167,0.698208,0.0136258,69.048,51.2108,0.00819417,1991
8,178,5.17538,3.31743,1.73242,8.30975,0.190886,0.582767,0.105278,1.33608,1.50643,0.276847,0.707869,0.0152842,69.2962,53.9534,0.0094167,1991
8,179,5.4022,3.44201,1.80217,8.40396,0.198041,0.605517,0.109133,1.34518,1.5161,0.267586,0.715304,0.0171102,69.522,56.2422,0.0107474,1991
8,180,5.63582,3.56961,1.87379,8.49803,0.203987,0.623947,0.112671,1.3529,1.52362,0.259861,0.721047,0.019092,69.7258,58.1528,0.0121802,1991
8,181,5.87456,3.69928,1.94677,8.59127,0.208909,0.639271,0.115802,1.3597,1.52954,0.253298,0.725486,0.0212156,69.9087,59.7506,0.0137071,1991
8,182,6.11721,3.83037,2.02074,8.68325,0.212974,0.652706,0.118062,1.36591,1.53427,0.247626,0.728909,0.0234654,70.0725,61.0907,0.0153189,1991
8,183,6.36302,3.96246,2.09546,8.77374,0.216326,0.66535,0.118913,1.37176,1.5381,0.242644,0.731531,0.025825,70.2189,62.2189,0.0170055,1991
8,184,6.61121,4.09514,2.1707,8.86256,0.219088,0.677108,0.118314,1.37743,1.54124,0.238204,0.73352,0.0282768,70.3496,63.1727,0.0187557,1991
8,185,6.86085,4.22794,2.24618,8.94948,0.22136,0.687348,0.116941,1.38304,1.54384,0.234195,0.735004,0.0308015,70.4664,63.982,0.020557,1991
8,186,7.11114,4.36045,2.32167,9.03434,0.223225,0.696144,0.115385,1.38869,1.54604,0.230534,0.736089,0.0333777,70.5707,64.6712,0.0223948,1991
8,187,7.36134,4.49229,2.39695,9.11701,0.224755,0.703546,0.113895,1.39446,1.5479,0.227157,0.736861,0.0359822,70.6639,65.2597,0.0242535,1991
8,188,7.61081,4.62316,2.47184,9.19743,0.226006,0.709522,0.11266,1.40042,1.54951,0.224016,0.737393,0.038591,70.7472,65.7635,0.026116,1991
8,189,7.85894,4.75278,2.54616,9.27553,0.227028,0.713681,0.112003,1.40663,1.55091,0.221073,0.737749,0.0411787,70.8216,66.1955,0.0279643,1991
8,190,8.10523,4.88089,2.61977,9.35128,0.22786,0.716033,0.112181,1.41315,1.55215,0.218297,0.737985,0.0437189,70.8882,66.566,0.0297793,1991
8,191,8.34931,5.00736,2.69257,9.42472,0.228538,0.717082,0.113102,1.42002,1.55325,0.215664,0.738151,0.0461847,70.9478,66.8835,0.0315411,1991
8,192,8.59095,5.13208,2.7645,9.4959,0.229091,0.717348,0.11447,1.4273,1.55424,0.213157,0.738294,0.0485488,71.0012,67.155,0.0332292,1991
8,193,8.83001,5.25502,2.83553,9.56489,0.229543,0.717341,0.115959,1.43505,1.55515,0.210759,0.738458,0.0507835,71.0489,67.386,0.0348226,1991
8,194,9.0665,5.3762,2.90567,9.63181,0.229915,0.717748,0.117147,1.44334,1.55598,0.208457,0.738682,0.0528609,71.0917,67.581,0.0363,1991
8,195,9.30049,5.4957,2.97494,9.69679,0.230225,0.718759,0.11772,1.45221,1.55675,0.206241,0.739006,0.054753,71.1299,67.7435,0.0376399,1991
8,196,9.51483,5.60482,3.03829,9.75526,0.216131,0.675221,0.116018,1.46192,1.55764,0.203874,0.739073,0.0570534,71.1745,67.9253,0.0392956,1991
8,197,9.72696,5.71248,3.1009,9.81219,0.216335,0.67642,0.11212,1.47221,1.55831,0.201825,0.739738,0.0584362,71.2034,68.0238,0.0402536,1991
8,198,9.93682,5.8187,3.16274,9.86763,0.216517,0.677359,0.11146,1.48337,1.55895,0.199836,0.740618,0.059546,71.2292,68.0962,0.0410062,1991
8,199,10.1445,5.92355,3.22387,9.92167,0.216775,0.678337,0.111332,1.50105,1.55977,0.197111,0.742432,0.0604572,71.258,68.1484,0.0415773,1991
8,200,10.3504,6.02716,3.28437,9.97442,0.217186,0.679841,0.111342,1.52948,1.56098,0.193075,0.745711,0.061214,71.2934,68.1841,0.0419775,1991
8,201,10.5546,6.12969,3.3443,10.026,0.217729,0.68191,0.111322,1.56641,1.56259,0.18805,0.750137,0.0618126,71.3333,68.2056,0.0422225,1991
8,202,10.7573,6.23124,3.40373,10.0765,0.218382,0.684568,0.111186,1.60951,1.56461,0.182363,0.755403,0.0622343,71.3755,68.2139,0.0423182,1991
8,203,10.9588,6.3319,3.46271,10.126,0.219118,0.687782,0.110874,1.65665,1.56699,0.176312,0.761226,0.062462,71.418,68.2096,0.0422712,1991
8,204,11.159,6.43173,3.52128,10.1746,0.219909,0.690991,0.110555,1.70592,1.56967,0.170145,0.767373,0.0624828,71.4595,68.1934,0.0420887,1991
8,205,11.3582,6.53077,3.57945,10.2222,0.22073,0.693935,0.110474,1.7558,1.57256,0.164054,0.773657,0.062289,71.499,68.1655,0.0417782,1991
8,206,11.5562,6.62905,3.63723,10.269,0.221558,0.696996,0.110532,1.80507,1.57558,0.158179,0.779942,0.0618785,71.536,68.1261,0.0413479,1991
8,207,11.7532,6.72657,3.69464,10.315,0.222375,0.700591,0.110364,1.85287,1.57864,0.152614,0.786132,0.0612543,71.5701,68.0755,0.0408067,1991
8,208,11.949,6.82329,3.75163,10.3601,0.223162,0.705044,0.109616,1.89856,1.58168,0.147416,0.79216,0.060424,71.6012,68.0135,0.0401637,1991
8,209,12.1435,6.91917,3.80819,10.4044,0.223907,0.709673,0.108379,1.94176,1.58462,0.142614,0.797987,0.059399,71.6294,67.9401,0.0394287,1991
8,210,12.3365,7.01416,3.86427,10.4479,0.224598,0.713627,0.107199,1.98222,1.58742,0.138218,0.803589,0.0581937,71.6549,67.8552,0.0386119,1991
8,211,12.5281,7.10821,3.91986,10.4905,0.225226,0.717044,0.106311,2.01984,1.59004,0.134223,0.808951,0.0568255,71.6777,67.7588,0.0377241,1991
8,212,12.7011,7.19297,3.97001,10.5286,0.210792,0.67226,0.103678,2.05484,1.59263,0.130441,0.813592,0.0559671,71.7023,67.7063,0.0372615,1991
9,141,0.400075,0.375348,0.16922,4.26755,0.0702281,0.215543,0.0345384,1.66549,1.57043,0.175477,0.823123,0.00140004,51.577,33.2231,0.000448202,1993
9,142,0.481206,0.438731,0.199756,4.47612,0.0650291,0.199259,0.0441181,1.71829,1.5646,0.17127,0.827082,0.00164858,56.8586,37.9712,0.000573865,1993
9,143,0.57184,0.507673,0.233314,4.68043,0.0722944,0.221079,0.0492286,1.76783,1.55866,0.167787,0.83029,0.00192227,60.5054,41.8905,0.000702693,1993
9,144,0.673252,0.58292,0.270302,4.8825,0.0805125,0.245689,0.0538586,1.81505,1.55503,0.164142,0.8336,0.00225717,63.2445,45.5903,0.000855891,1993
9,145,0.786048,0.664688,0.310869,5.08248,0.0891954,0.271617,0.0592003,1.85784,1.55242,0.160688,0.836649,0.00266286,65.2786,49.0041,0.00103744,1993
9,146,0.91083,0.75318,0.355165,5.28051,0.0983355,0.298854,0.0647455,1.89527,1.55005,0.157634,0.839219,0.00314737,66.7829,52.0748,0.00125026,1993
9,147,1.04818,0.848583,0.403326,5.47665,0.107914,0.327359,0.0704949,1.92735,1.54764,0.155029,0.841251,0.00372037,67.9019,54.7904,0.0014981,1993
9,148,1.1984,0.950903,0.455402,5.67068,0.117756,0.356587,0.0757473,1.95447,1.54509,0.152867,0.842744,0.00438969,68.7401,57.1527,0.00178377,1993
9,149,1.36165,1.06004,0.511382,5.86225,0.127762,0.386172,0.0816852,1.97724,1.54244,0.1511,0.843738,0.00516219,69.3738,59.1826,0.00210967,1993
9,150,1.53798,1.17586,0.571234,6.05112,0.137884,0.415978,0.0872153,1.99631,1.53976,0.149667,0.84429,0.00604329,69.8579,60.9118,0.0024777,1993
9,151,1.73598,1.30373,0.637798,6.24521,0.154758,0.466087,0.093647,2.01176,1.53669,0.148686,0.844352,0.00696245,70.2101,62.2722,0.00285432,1993
9,152,1.94518,1.43663,0.707469,6.43337,0.163768,0.492589,0.100896,2.02541,1.53429,0.147659,0.844255,0.00808555,70.5111,63.55,0.00331756,1993
9,153,2.16898,1.57661,0.781354,6.61893,0.175076,0.526238,0.106765,2.03686,1.53195,0.146826,0.843855,0.00931852,70.7461,64.6156,0.00382267,1993
9,154,2.40778,1.72379,0.859542,6.80206,0.186659,0.560873,0.112547,2.04656,1.52974,0.14612,0.843209,0.0106708,70.9332,65.5143,0.00437428,1993
9,155,2.66149,1.87797,0.941958,6.98261,0.198212,0.595491,0.118155,2.05484,1.5277,0.145504,0.842355,0.0121407,71.0836,66.2736,0.00497204,1993
9,156,2.92994,2.03891,1.02852,7.16042,0.209671,0.63001,0.123469,2.06193,1.52583,0.144953,0.841324,0.0137228,71.2056,66.9159,0.00561412,1993
9,157,3.213,2.20645,1.11914,7.33544,0.220997,0.664496,0.127987,2.06804,1.52413,0.144448,0.840143,0.015409,71.3053,67.4602,0.00629772,1993
9,158,3.51027,2.38025,1.21368,7.50751,0.23198,0.698461,0.131695,2.07335,1.52261,0.143971,0.83884,0.0171889,71.3874,67.9226,0.00701922,1993
9,159,3.82035,2.55942,1.31166,7.676,0.241993,0.729934,0.133893,2.07798,1.52126,0.143511,0.83744,0.0190486,71.4554,68.3159,0.00777359,1993
9,160,4.10768,2.72361,1.4019,7.82335,0.228897,0.691672,0.135012,2.08204,1.52007,0.143062,0.83597,0.0209677,71.5119,68.6506,0.00855309,1993
9,161,4.39193,2.8845,1.49073,7.96188,0.22868,0.69202,0.133309,2.08554,1.51897,0.142668,0.834547,0.0227855,71.5562,68.9161,0.00928931,1993
9,162,4.6728,3.04209,1.57808,8.09245,0.228419,0.691789,0.131808,2.08864,1.51802,0.142284,0.833157,0.0245587,71.5927,69.1378,0.0100083,1993
9,163,4.94998,3.19635,1.66391,8.21579,0.22814,0.690864,0.130853,2.0914,1.51723,0.141906,0.83183,0.0262646,71.623,69.3233,0.0107012,1993
9,164,5.22333,3.34733,1.74822,8.33258,0.227861,0.689549,0.130462,2.09388,1.51659,0.141529,0.830592,0.0278794,71.648,69.4782,0.0113591,1993
9,165,5.49284,3.49516,1.83104,8.44343,0.227598,0.688186,0.130407,2.09613,1.51611,0.14115,0.82947,0.0293795,71.6688,69.6069,0.0119727,1993
9,166,5.75853,3.63993,1.91239,8.54888,0.227366,0.686741,0.130574,2.09819,1.51579,0.140768,0.828491,0.0307408,71.6859,69.7128,0.0125324,1993
9,167,6.02039,3.78175,1.99232,8.64939,0.227176,0.685167,0.131015,2.1001,1.51563,0.14038,0.827681,0.0319388,71.6998,69.7983,0.0130286,1993
9,168,6.27842,3.92068,2.07084,8.74535,0.227067,0.683435,0.131784,2.10268,1.51564,0.139991,0.827068,0.0329411,71.7116,69.8649,0.0134442,1993
9,169,6.53289,4.05695,2.14805,8.83721,0.227067,0.682309,0.132542,2.10662,1.51581,0.139609,0.826662,0.0337296,71.7224,69.9145,0.0137676,1993
9,170,6.78423,4.19085,2.2241,8.9254,0.227172,0.682249,0.132699,2.11178,1.51612,0.139237,0.826461,0.0343028,71.7323,69.9489,0.0139979,1993
9,171,7.03264,4.32255,2.29908,9.01025,0.227376,0.682697,0.132213,2.11801,1.51655,0.138877,0.826462,0.0346615,71.7413,69.9698,0.0141353,1993
9,172,7.27813,4.4521,2.373,9.09199,0.227672,0.683083,0.131562,2.12518,1.51711,0.13853,0.826662,0.0348074,71.7496,69.9779,0.0141808,1993
9,173,7.52057,4.57947,2.44583,9.17076,0.228052,0.682924,0.131266,2.13314,1.51776,0.1382,0.827057,0.0347431,71.7572,69.9737,0.0141355,1993
9,174,7.75994,4.70469,2.51758,9.24673,0.228509,0.68255,0.131452,2.14176,1.5185,0.137888,0.827639,0.0344723,71.7643,69.9573,0.0140013,1993
9,175,7.99639,4.82789,2.58831,9.32011,0.229035,0.682547,0.131739,2.15091,1.51932,0.137597,0.828403,0.0340005,71.7709,69.9285,0.013781,1993
9,176,8.2301,4.94919,2.65808,9.39111,0.22962,0.68289,0.131829,2.1605,1.52022,0.137327,0.829338,0.0333354,71.7769,69.8868,0.0134786,1993
9,177,8.4612,5.06869,2.72694,9.45988,0.230256,0.683559,0.131685,2.17039,1.52118,0.137081,0.830433,0.0324861,71.7826,69.8315,0.0130984,1993
9,178,8.6898,5.18648,2.79493,9.52657,0.230931,0.684508,0.131318,2.18051,1.52219,0.13686,0.831677,0.0314629,71.7878,69.7611,0.0126455,1993
9,179,8.91606,5.30266,2.8621,9.59133,0.231636,0.685904,0.130661,2.19074,1.52326,0.136666,0.833057,0.0302772,71.7928,69.6742,0.0121255,1993
9,180,9.1401,5.41732,2.9285,9.65428,0.232358,0.687711,0.129638,2.20102,1.52436,0.136502,0.834556,0.0289421,71.7973,69.5684,0.0115447,1993
9,181,9.36195,5.5305,2.99415,9.71552,0.233084,0.689634,0.12837,2.21127,1.52551,0.136368,0.83616,0.0274718,71.8016,69.441,0.0109098,1993
9,182,9.58155,5.64219,3.05903,9.77511,0.233799,0.691377,0.127105,2.22141,1.52669,0.136269,0.837849,0.0258816,71.8056,69.2882,0.0102279,1993
9,183,9.79878,5.75235,3.12311,9.83308,0.234485,0.692669,0.12608,2.2314,1.52791,0.136207,0.839605,0.0241883,71.8094,69.1053,0.00950672,1993
9,184,10.0135,5.86093,3.18636,9.88947,0.235123,0.693488,0.1254,2.24116,1.52917,0.136186,0.841404,0.0224096,71.8129,68.8861,0.00875433,1993
9,185,10.2257,5.9679,3.24876,9.94432,0.235689,0.693954,0.124981,2.25067,1.53046,0.136211,0.843223,0.0205653,71.8162,68.6227,0.00797937,1993
9,186,10.4351,6.07321,3.31027,9.99766,0.236156,0.69393,0.124768,2.25989,1.53181,0.13629,0.845034,0.0186763,71.8193,68.305,0.00719096,1993
9,187,10.6416,6.17678,3.37085,10.0495,0.23649,0.693268,0.124801,2.2688,1.53321,0.136429,0.846806,0.0167651,71.8221,67.9198,0.00639868,1993
9,188,10.8449,6.27852,3.43042,10.0998,0.236651,0.691842,0.125114,2.27738,1.5347,0.136641,0.848503,0.0148555,71.8248,67.4498,0.00561254,1993
9,189,11.0448,6.37831,3.48893,10.1487,0.236589,0.689853,0.12557,2.28563,1.5363,0.13694,0.850087,0.012973,71.8273,66.8729,0.00484297,1993
9,190,11.2412,6.47607,3.54631,10.196,0.236243,0.68753,0.125849,2.29359,1.53805,0.137345,0.851511,0.0111441,71.8296,66.1613,0.00410079,1993
9,191,11.4335,6.57166,3.60247,10.2418,0.235546,0.684709,0.125744,2.30131,1.54,0.137878,0.852725,0.0093966,71.8317,65.2809,0.0033972,1993
9,192,11.6216,6.66487,3.65731,10.286,0.234421,0.681231,0.125192,2.30885,1.54225,0.138565,0.853675,0.00775957,71.8337,64.1939,0.00274375,1993
9,193,11.8048,6.75551,3.71067,10.3285,0.232805,0.676966,0.124152,2.3163,1.54485,0.139429,0.854308,0.00626292,71.8355,62.8673,0.00215225,1993
9,194,11.9826,6.84333,3.76244,10.3694,0.230686,0.671939,0.122592,2.32374,1.5479,0.140472,0.85459,0.00493774,71.8371,61.2945,0.0016348,1993
9,195,12.1548,6.92818,3.8125,10.4086,0.228182,0.666434,0.120557,2.33109,1.55137,0.141644,0.85454,0.00381662,71.8386,59.5404,0.00120371,1993
9,196,12.3089,7.00397,3.85725,10.4433,0.212058,0.621585,0.11678,2.33899,1.55572,0.142479,0.854556,0.00296436,71.8419,57.9524,0.000882224,1993
9,197,12.4588,7.0776,3.90076,10.4767,0.210318,0.618556,0.11107,2.34439,1.55895,0.14328,0.854369,0.00235165,71.8429,56.6291,0.000658271,1993
9,198,12.6064,7.15001,3.94359,10.5094,0.209912,0.618944,0.109154,2.3467,1.56072,0.143407,0.854532,0.00206062,71.8438,56.1764,0.000560115,1993
9,199,12.7536,7.22208,3.98625,10.5417,0.210759,0.622284,0.108433,2.34576,1.5611,0.14298,0.855079,0.0019416,71.8445,56.4977,0.000529809,1993
9,200,12.9014,7.29433,4.02904,10.5738,0.212265,0.627045,0.108546,2.34235,1.56078,0.142367,0.855813,0.0018195,71.8447,57.19,0.000500695,1993
9,201,13.0504,7.36708,4.07216,10.6059,0.214216,0.632873,0.109247,2.33676,1.55987,0.141679,0.856623,0.00169742,71.8446,58.1458,0.00047295,1993
9,202,13.201,7.44049,4.11571,10.6381,0.216375,0.639362,0.110194,2.32927,1.55855,0.141035,0.857387,0.00157761,71.8441,59.2452,0.000446587,1993
9,203,13.3532,7.51457,4.15968,10.6704,0.218541,0.646183,0.111055,2.32017,1.55695,0.140531,0.858008,0.00146154,71.8433,60.3856,0.000421601,1993
9,204,13.5067,7.5892,4.20401,10.7027,0.22057,0.652852,0.111676,2.30966,1.55521,0.140227,0.858423,0.00135001,71.8421,61.4943,0.00039798,1993
9,205,13.6613,7.66424,4.24862,10.735,0.22238,0.658892,0.112134,2.29791,1.55339,0.140158,0.858599,0.00124328,71.8406,62.5272,0.000375703,1993
9,206,13.8165,7.73949,4.29338,10.7671,0.22393,0.664211,0.112505,2.285,1.55155,0.140334,0.858524,0.00114136,71.8388,63.463,0.000354748,1993
9,207,13.9721,7.81476,4.33819,10.799,0.225209,0.6688,0.112783,2.271,1.54969,0.140754,0.858202,0.0010441,71.8367,64.2956,0.000335091,1993
9,208,14.1275,7.88987,4.38294,10.8306,0.226227,0.672691,0.112966,2.25593,1.54784,0.141411,0.857638,0.000951323,71.8342,65.028,0.000316708,1993
9,209,14.2825,7.96467,4.42754,10.8619,0.226998,0.675907,0.113071,2.23984,1.546,0.142292,0.856845,0.00086288,71.8314,65.668,0.000299576,1993
9,210,14.4367,8.03901,4.47189,10.8928,0.227542,0.678464,0.113141,2.22273,1.54414,0.143388,0.855833,0.000778652,71.8283,66.2253,0.000283671,1993
9,211,14.59,8.11278,4.51592,10.9233,0.227879,0.680352,0.113233,2.20463,1.54228,0.144688,0.854614,0.000698565,71.8248,66.7096,0.000268968,1993
9,212,14.7281,8.17918,4.55559,10.9506,0.213019,0.636779,0.11142,2.18588,1.54061,0.146067,0.853303,0.00063038,71.8234,67.1924,0.000258865,1993
10,141,0.407016,0.380919,0.171877,4.28682,0.0734434,0.231167,0.0375791,0.896681,1.89751,0.0709086,0.928678,0.000413257,23.6148,63.0907,0.000320988,1994
10,142,0.493455,0.448261,0.204354,4.50563,0.066988,0.211159,0.045542,0.893617,1.89229,0.0775389,0.921974,0.000486679,26.4131,64.414,0.000390438,1994
10,143,0.590184,0.521553,0.240085,4.7192,0.0743744,0.234648,0.0510549,0.891335,1.88865,0.0819647,0.91749,0.000545563,28.2493,65.1756,0.000447372,1994
10,144,0.698468,0.601521,0.279466,4.92962,0.0826591,0.260899,0.0567904,0.88923,1.88532,0.0858591,0.913535,0.000605433,29.8584,65.7768,0.000506332,1994
10,145,0.818801,0.688282,0.322605,5.13699,0.0912848,0.288216,0.0627824,0.887306,1.88232,0.0892642,0.91007,0.000666271,31.258,66.2566,0.000567411,1994
10,146,0.951565,0.78188,0.369569,5.34124,0.100193,0.316372,0.0690258,0.885587,1.87973,0.0921655,0.907107,0.000727314,32.4404,66.6356,0.000629969,1994
10,147,1.0967,0.882068,0.420277,5.54185,0.109116,0.344452,0.0741983,0.884081,1.87757,0.0945814,0.90463,0.000788255,33.4128,66.9325,0.000693789,1994
10,148,1.25409,0.988586,0.474634,5.73847,0.118033,0.372345,0.0806886,0.882807,1.8759,0.0964893,0.902663,0.000848156,34.1642,67.1561,0.000757998,1994
10,149,1.42398,1.10144,0.532678,5.93135,0.127134,0.400844,0.0873565,0.881779,1.87476,0.0978781,0.901216,0.00090629,34.6894,67.3141,0.000821877,1994
10,150,1.60715,1.22101,0.594632,6.12126,0.136711,0.431092,0.0941751,0.880999,1.87419,0.0987463,0.900291,0.000962256,34.9879,67.4122,0.000884985,1994
10,151,1.81297,1.35313,0.663586,6.31664,0.153193,0.483337,0.100245,0.880718,1.87473,0.0985948,0.9004,0.00100511,34.8368,67.4013,0.000935768,1994
10,152,2.03015,1.49028,0.735672,6.50591,0.161596,0.510232,0.107879,0.880346,1.87516,0.0985629,0.900378,0.00105956,34.7486,67.4049,0.000999854,1994
10,153,2.26285,1.63498,0.81224,6.69291,0.172721,0.545781,0.115195,0.880257,1.87632,0.0978858,0.901004,0.00111012,34.3824,67.3414,0.00106094,1994
10,154,2.51191,1.7876,0.893525,6.87809,0.184385,0.583249,0.122677,0.880412,1.87816,0.0965917,0.90225,0.00115848,33.7544,67.2125,0.00112042,1994
10,155,2.77831,1.94856,0.97979,7.06185,0.196602,0.622862,0.129341,0.880801,1.88073,0.0946264,0.904169,0.00120504,32.8455,67.0084,0.00117825,1994
10,156,3.06297,2.11823,1.07128,7.24448,0.209365,0.664534,0.136858,0.881405,1.88408,0.0919176,0.906832,0.00125051,31.6306,66.7133,0.00123445,1994
10,157,3.36663,2.29688,1.16818,7.42611,0.222586,0.707912,0.143718,0.882189,1.88828,0.0883717,0.910332,0.00129585,30.0783,66.3025,0.00128905,1994
10,158,3.68948,2.48444,1.27049,7.60652,0.235945,0.751889,0.15124,0.88309,1.89339,0.083873,0.914785,0.00134248,28.1515,65.7376,0.00134209,1994
10,159,4.03183,2.68093,1.37828,7.78565,0.249484,0.79675,0.158023,0.883993,1.8995,0.0782838,0.920324,0.00139237,25.8093,64.9586,0.00139351,1994
10,160,4.39385,2.88627,1.49153,7.96337,0.263101,0.842205,0.16467,0.884687,1.9067,0.0714629,0.927088,0.00144878,23.0169,63.8693,0.00144342,1994
10,161,4.77444,3.09972,1.60987,8.13902,0.276108,0.885783,0.170932,0.884799,1.91516,0.0632868,0.935196,0.00151702,19.757,62.3112,0.001492,1994
10,162,5.17068,3.31952,1.73236,8.31135,0.287484,0.923889,0.176498,0.883662,1.92525,0.0536913,0.944702,0.00160629,16.0505,60.0116,0.00153924,1994
10,163,5.57642,3.54226,1.85709,8.47806,0.295326,0.950218,0.179658,0.880036,1.93802,0.0427558,0.95551,0.00173448,11.9964,56.4912,0.00158491,1994
10,164,5.94887,3.74475,1.971,8.62342,0.277302,0.893878,0.177417,0.871528,1.95645,0.0308067,0.967253,0.00194059,7.82871,50.9302,0.00162833,1994
10,165,6.25666,3.9107,2.06473,8.73854,0.239853,0.776645,0.165363,0.853563,1.98918,0.0184146,0.979275,0.00231082,3.96563,42.1581,0.00166132,1994
10,166,6.47674,4.02862,2.13152,8.81828,0.187968,0.614145,0.138809,0.821768,2.05576,0.00659724,0.990402,0.00300104,1.09782,30.5542,0.00167969,1994
10,167,6.6442,4.11795,2.18224,8.87763,0.157289,0.517689,0.115658,0.798761,2.12069,0,0.996403,0.00359731,0,23.8727,0.00168161,1994
10,168,6.80425,4.20305,2.23062,8.93333,0.154925,0.507089,0.106536,0.857976,2.08082,0.0319674,0.964606,0.00342626,5.46567,25.0001,0.00167204,1994
10,169,6.95423,4.28255,2.27588,8.98467,0.152012,0.491304,0.103155,0.971177,1.95274,0.0948641,0.902034,0.00310211,17.8358,27.7359,0.00165621,1994
10,170,7.10068,4.35996,2.32002,9.03403,0.153474,0.488157,0.101772,1.07123,1.80028,0.147989,0.849212,0.00279945,30.6462,31.5227,0.00163394,1994
10,171,7.24937,4.43834,2.36476,9.08339,0.15836,0.496177,0.102179,1.15187,1.68876,0.182377,0.815057,0.0025663,40.9164,35.7703,0.00160675,1994
10,172,7.403,4.5191,2.41093,9.13362,0.164626,0.509469,0.10382,1.21693,1.61915,0.202698,0.794908,0.00239313,48.4253,40.015,0.00157589,1994
10,173,7.5622,4.60257,2.45871,9.18488,0.171014,0.524047,0.106071,1.2688,1.57651,0.214378,0.783359,0.00226313,53.7889,43.9691,0.00154198,1994
10,174,7.72663,4.68854,2.50798,9.23701,0.176944,0.537998,0.10852,1.30987,1.54968,0.22104,0.776797,0.00216332,57.64,47.4958,0.00150527,1994
10,175,7.89559,4.77664,2.55854,9.28974,0.182203,0.550777,0.110819,1.34245,1.53214,0.224814,0.773101,0.00208486,60.4494,50.5593,0.00146587,1994
10,176,8.06831,4.86644,2.61015,9.34281,0.18676,0.562287,0.112685,1.36857,1.52023,0.226912,0.771066,0.00202177,62.5388,53.18,0.00142386,1994
10,177,8.24408,4.95757,2.66259,9.39597,0.190661,0.572715,0.11394,1.3898,1.51186,0.228022,0.770008,0.00196996,64.123,55.4041,0.00137936,1994
10,178,8.42229,5.04971,2.71568,9.44903,0.193984,0.582299,0.114468,1.40735,1.50579,0.228538,0.769535,0.00192661,65.3464,57.2854,0.00133255,1994
10,179,8.60228,5.14251,2.76923,9.5018,0.196812,0.590795,0.114433,1.42213,1.50127,0.22869,0.76942,0.00188973,66.307,58.8764,0.00128364,1994
10,180,8.78345,5.23567,2.82306,9.55411,0.19922,0.598048,0.11422,1.4348,1.49783,0.228613,0.769529,0.00185792,67.0728,60.2239,0.00123292,1994
10,181,8.96529,5.32892,2.87701,9.60583,0.201276,0.604419,0.11396,1.44587,1.49517,0.22839,0.76978,0.00183017,67.6916,61.3681,0.00118067,1994
10,182,9.14746,5.42209,2.93098,9.65688,0.203038,0.610275,0.113508,1.45571,1.49308,0.22807,0.770125,0.00180577,68.1976,62.3429,0.00112726,1994
10,183,9.32966,5.51504,2.98489,9.70721,0.204554,0.615855,0.112718,1.46462,1.49142,0.227683,0.770533,0.00178424,68.6159,63.1762,0.0010731,1994
10,184,9.51149,5.60756,3.03863,9.75672,0.205864,0.620379,0.111927,1.47283,1.49008,0.227247,0.770988,0.00176524,68.9652,63.891,0.00101862,1994
10,185,9.69256,5.69948,3.09207,9.80535,0.207001,0.623529,0.111704,1.48051,1.48901,0.226775,0.771477,0.00174855,69.2593,64.506,0.000964293,1994
10,186,9.87267,5.79068,3.14516,9.85307,0.207991,0.626199,0.111914,1.4878,1.48813,0.226272,0.771994,0.00173402,69.5089,65.0363,0.000910604,1994
10,187,10.0518,5.88116,3.19789,9.8999,0.208857,0.629288,0.111864,1.49482,1.48743,0.225741,0.772537,0.00172159,69.7223,65.4947,0.000858084,1994
10,188,10.2299,5.97094,3.25028,9.94588,0.209618,0.633551,0.110846,1.50168,1.48686,0.225186,0.773103,0.00171126,69.9058,65.8914,0.000807297,1994
10,189,10.407,6.05998,3.30229,9.991,0.210288,0.638255,0.108867,1.50845,1.4864,0.224604,0.773693,0.00170309,70.0645,66.2348,0.000758827,1994
10,190,10.5827,6.14816,3.35385,10.0352,0.21088,0.642353,0.106726,1.5152,1.48605,0.223996,0.774307,0.00169713,70.2025,66.5319,0.000713266,1994
10,191,10.757,6.23541,3.40492,10.0786,0.211405,0.646056,0.104837,1.52201,1.48578,0.22336,0.774946,0.00169346,70.3231,66.788,0.000671217,1994
10,192,10.9296,6.32167,3.45546,10.121,0.21187,0.649561,0.103096,1.52894,1.48559,0.222695,0.775613,0.00169217,70.4287,67.0078,0.000633302,1994
10,193,11.1005,6.40686,3.50544,10.1625,0.212282,0.652952,0.101401,1.53604,1.48547,0.221996,0.77631,0.00169338,70.5215,67.1948,0.000600161,1994
10,194,11.2695,6.49098,3.55482,10.2031,0.212648,0.655252,0.10013,1.54338,1.48542,0.221263,0.77704,0.00169723,70.6034,67.3518,0.000572447,1994
10,195,11.4367,6.57406,3.60365,10.2429,0.212972,0.656035,0.0997968,1.55101,1.48543,0.220491,0.777805,0.00170385,70.6756,67.4809,0.000550825,1994
10,196,11.5887,6.64937,3.64795,10.2786,0.200085,0.615636,0.0987179,1.55916,1.48564,0.219576,0.778691,0.00173342,70.7552,67.6361,0.000542592,1994
10,197,11.739,6.72379,3.69176,10.3137,0.200305,0.615907,0.0962816,1.56757,1.48577,0.218722,0.779534,0.00174494,70.81,67.7092,0.000534675,1994
10,198,11.8877,6.79727,3.73505,10.348,0.200496,0.617099,0.0960347,1.57648,1.48595,0.217815,0.780426,0.00175989,70.8585,67.7578,0.000535044,1994
10,199,12.0346,6.86972,3.77778,10.3816,0.200655,0.618824,0.0954118,1.58671,1.48614,0.216815,0.781414,0.00177152,70.9047,67.787,0.000538816,1994
10,200,12.1796,6.94114,3.81992,10.4145,0.200769,0.620353,0.0945654,1.59872,1.48624,0.215716,0.782512,0.00177191,70.9507,67.7999,0.000540301,1994
10,201,12.3226,7.01146,3.86145,10.4467,0.200842,0.62188,0.0936588,1.61214,1.48626,0.214551,0.783687,0.00176187,70.9961,67.7986,0.000539729,1994
10,202,12.4634,7.08062,3.90233,10.4781,0.200875,0.623558,0.0925879,1.62662,1.48622,0.213352,0.784906,0.00174181,71.0403,67.7835,0.000537203,1994
10,203,12.6018,7.14851,3.94248,10.5087,0.200865,0.625483,0.09126,1.64183,1.48611,0.212147,0.786141,0.00171216,71.0829,67.7553,0.000532826,1994
10,204,12.7379,7.21512,3.9819,10.5386,0.200811,0.626948,0.0899191,1.65751,1.48592,0.210959,0.787367,0.00167342,71.1237,67.714,0.000526711,1994
10,205,12.8716,7.28054,4.02065,10.5677,0.200711,0.62746,0.0889792,1.6734,1.48567,0.209809,0.788565,0.00162614,71.1624,67.6598,0.00051898,1994
10,206,13.0032,7.34479,4.05872,10.5961,0.200563,0.627428,0.088435,1.6893,1.48533,0.208712,0.789717,0.00157093,71.199,67.5928,0.000509769,1994
10,207,13.1325,7.40784,4.09611,10.6238,0.200364,0.627227,0.0880082,1.70502,1.48491,0.207683,0.790808,0.00150845,71.2334,67.5129,0.000499215,1994
10,208,13.2592,7.46959,4.13276,10.6509,0.200113,0.62722,0.0874233,1.72041,1.4844,0.206733,0.791827,0.00143936,71.2655,67.4199,0.000487459,1994
10,209,13.3834,7.52999,4.16862,10.6771,0.199806,0.627034,0.0866951,1.73534,1.48379,0.205871,0.792764,0.00136438,71.2955,67.3134,0.00047464,1994
10,210,13.505,7.58908,4.20373,10.7027,0.19944,0.626238,0.0860868,1.7497,1.48308,0.205105,0.793611,0.00128426,71.3234,67.1932,0.000460907,1994
10,211,13.6241,7.64688,4.23809,10.7275,0.199012,0.624982,0.085667,1.7634,1.48225,0.20444,0.79436,0.00119981,71.3492,67.059,0.000446419,1994
10,212,13.7279,7.69726,4.26805,10.7491,0.185471,0.582474,0.083751,1.77662,1.48152,0.203741,0.795133,0.00112576,71.3816,66.9751,0.000437115,1994
11,141,0.360261,0.343272,0.153946,4.15254,0.0742686,0.125347,0.0245144,1.36375,0.995635,0.395057,0.604559,0.000384305,59.4637,13.9579,3.17619e-05,1997
11,142,0.416517,0.387967,0.175341,4.31092,0.0798666,0.143101,0.030945,1.39512,1.01654,0.380351,0.619255,0.000394088,60.6636,15.129,3.45815e-05,1997
11,143,0.473121,0.432007,0.196592,4.45503,0.076354,0.144728,0.0333137,1.4278,1.03805,0.366344,0.633254,0.000402238,61.7885,16.3417,3.7434e-05,1997
11,144,0.533462,0.478095,0.21899,4.59529,0.0773986,0.153981,0.0352962,1.45679,1.05656,0.354953,0.644641,0.000406134,62.7249,17.4117,3.97464e-05,1997
11,145,0.597468,0.526142,0.242499,4.73186,0.0784895,0.163135,0.0371902,1.48443,1.0738,0.344891,0.654702,0.000407009,63.5575,18.422,4.17186e-05,1997
11,146,0.665037,0.576045,0.267074,4.86481,0.0796062,0.172131,0.0389553,1.51059,1.08973,0.336028,0.663568,0.000404785,64.2968,19.365,4.32904e-05,1997
11,147,0.736081,0.627717,0.292676,4.99431,0.080754,0.18101,0.0405651,1.53548,1.10453,0.328141,0.67146,0.000399552,64.9572,20.245,4.44413e-05,1997
11,148,0.810487,0.681059,0.31926,5.12044,0.0819159,0.189734,0.0419949,1.55908,1.11823,0.32113,0.678478,0.000391289,65.5461,21.0577,4.51274e-05,1997
11,149,0.888118,0.735959,0.346772,5.24329,0.0830824,0.198243,0.0432506,1.58144,1.13089,0.314884,0.684736,0.000380047,66.0714,21.8021,4.53215e-05,1997
11,150,0.968805,0.79229,0.37515,5.36289,0.0842461,0.206474,0.0443756,1.60263,1.14262,0.309301,0.690333,0.000365915,66.5403,22.4788,4.50062e-05,1997
11,151,1.05747,0.853428,0.406106,5.48619,0.0905293,0.226808,0.0459301,1.61764,1.14988,0.305908,0.693745,0.000346908,66.9001,22.8939,4.36371e-05,1997
11,152,1.14924,0.915943,0.437922,5.60609,0.0919062,0.235491,0.0483132,1.63825,1.1611,0.300894,0.698778,0.000328151,67.2949,23.4972,4.24683e-05,1997
11,153,1.24392,0.979696,0.470525,5.72264,0.0932653,0.243822,0.0495198,1.65783,1.17157,0.296366,0.703327,0.000306926,67.646,24.0353,4.07817e-05,1997
11,154,1.34127,1.04452,0.503831,5.83588,0.094605,0.25166,0.0506023,1.67645,1.18139,0.292258,0.707458,0.0002835,67.9583,24.5116,3.86016e-05,1997
11,155,1.44101,1.11026,0.537755,5.94583,0.0959241,0.258977,0.0517748,1.6942,1.19063,0.288515,0.711227,0.000258195,68.2363,24.93,3.59649e-05,1997
11,156,1.54296,1.17679,0.572232,6.05259,0.0972235,0.265909,0.0530269,1.71112,1.19938,0.285086,0.714683,0.000231388,68.4838,25.2952,3.29217e-05,1997
11,157,1.64697,1.24403,0.607216,6.15632,0.0985076,0.272617,0.0542485,1.72731,1.20772,0.281923,0.717873,0.000203521,68.7042,25.6132,2.95367e-05,1997
11,158,1.75296,1.31193,0.642685,6.25719,0.0997834,0.279279,0.0553079,1.74284,1.21573,0.278981,0.720844,0.000175088,68.9006,25.8912,2.58882e-05,1997
11,159,1.86088,1.38049,0.678626,6.35542,0.101061,0.286007,0.0560994,1.75779,1.2235,0.276216,0.723638,0.000146642,69.0757,26.1374,2.20671e-05,1997
11,160,1.97067,1.44966,0.715021,6.45117,0.102352,0.292731,0.0566378,1.77226,1.23111,0.273588,0.726294,0.000118783,69.2319,26.3611,1.81762e-05,1997
11,161,2.08223,1.51941,0.75184,6.54454,0.103667,0.299315,0.0570609,1.7863,1.23862,0.271063,0.728845,9.21585e-05,69.3712,26.5717,1.43294e-05,1997
11,162,2.19542,1.58964,0.789042,6.63561,0.105018,0.30561,0.0575475,1.79994,1.2461,0.268614,0.731319,6.74627e-05,69.4951,26.7792,1.06519e-05,1997
11,163,2.31009,1.66029,0.826578,6.72443,0.106417,0.311464,0.0582785,1.81321,1.25358,0.266217,0.733737,4.5432e-05,69.605,26.9941,7.28074e-06,1997
11,164,2.4261,1.73126,0.864407,6.81107,0.107873,0.316925,0.059342,1.82611,1.2611,0.263855,0.736118,2.68437e-05,69.702,27.2275,4.3643e-06,1997
11,165,2.5434,1.80255,0.902513,6.89564,0.109401,0.322224,0.0606557,1.83863,1.26866,0.261509,0.738479,1.25103e-05,69.7872,27.491,2.06276e-06,1997
11,166,2.66195,1.87415,0.940894,6.97827,0.111012,0.327491,0.0620899,1.85073,1.2763,0.259163,0.740834,3.27409e-06,69.8614,27.797,5.47343e-07,1997
11,167,2.7818,1.94609,0.979561,7.05911,0.112722,0.332875,0.0635401,1.86237,1.28402,0.256803,0.743197,0,69.9252,28.1582,0,1997
11,168,2.90296,2.01839,1.01852,7.13829,0.114467,0.338429,0.064874,1.87334,1.29164,0.254525,0.745468,6.27819e-06,69.9795,28.5338,1.18247e-06,1997
11,169,3.02551,2.09109,1.05781,7.21596,0.116179,0.344367,0.0658777,1.88351,1.29904,0.252426,0.747549,2.50545e-05,70.0252,28.8761,4.781e-06,1997
11,170,3.1495,2.16424,1.09744,7.29224,0.117861,0.350719,0.0663978,1.89293,1.30624,0.250493,0.749451,5.6169e-05,70.0633,29.1867,1.08569e-05,1997
11,171,3.27491,2.23784,1.1374,7.3672,0.119519,0.357187,0.0665525,1.90164,1.31328,0.248718,0.751183,9.93673e-05,70.0946,29.4674,1.94513e-05,1997
11,172,3.40165,2.31183,1.17767,7.44085,0.121153,0.363443,0.0666418,1.90966,1.32016,0.247096,0.752749,0.000154302,70.1195,29.7195,3.05847e-05,1997
11,173,3.52955,2.38611,1.2182,7.51316,0.122767,0.369171,0.0669804,1.91699,1.32691,0.245627,0.754152,0.000220531,70.1385,29.944,4.42561e-05,1997
11,174,3.65848,2.46063,1.25895,7.58415,0.124359,0.374419,0.0677054,1.92363,1.33351,0.244313,0.75539,0.000297519,70.152,30.1417,6.0442e-05,1997
11,175,3.78836,2.53534,1.29989,7.65384,0.12593,0.379454,0.0686942,1.92956,1.33998,0.243154,0.756461,0.000384644,70.1602,30.3138,7.90959e-05,1997
11,176,3.91912,2.61021,1.341,7.72227,0.127481,0.384284,0.0698222,1.93477,1.34631,0.242155,0.757364,0.000481195,70.1635,30.4615,0.00010015,1997
11,177,4.05069,2.6852,1.38227,7.78945,0.129013,0.388928,0.071062,1.93924,1.3525,0.241316,0.758097,0.000586386,70.1619,30.5863,0.000123513,1997
11,178,4.18301,2.76029,1.42367,7.85543,0.130528,0.39341,0.0723918,1.94294,1.35854,0.240644,0.758657,0.000699354,70.1559,30.6897,0.000149072,1997
11,179,4.31605,2.83547,1.46521,7.92025,0.132024,0.39791,0.0737197,1.94584,1.36442,0.240141,0.759039,0.000819167,70.1454,30.7732,0.000176692,1997
11,180,4.44982,2.91076,1.50688,7.98397,0.133503,0.402615,0.0748779,1.94792,1.37014,0.239814,0.759241,0.000944836,70.1307,30.8388,0.000206218,1997
11,181,4.58435,2.98616,1.5487,8.04666,0.134967,0.407559,0.075747,1.94913,1.37568,0.239667,0.759258,0.00107532,70.1121,30.8884,0.000237472,1997
11,182,4.71966,3.06169,1.59067,8.10836,0.136414,0.412779,0.0762743,1.94946,1.38102,0.239704,0.759087,0.00120954,70.0896,30.9242,0.000270259,1997
11,183,4.85574,3.13738,1.63279,8.16914,0.137845,0.418263,0.0764386,1.94887,1.38615,0.23993,0.758724,0.00134637,70.0637,30.9483,0.000304363,1997
11,184,4.9925,3.21315,1.67504,8.22898,0.13926,0.423573,0.0764277,1.94734,1.39103,0.24035,0.758166,0.00148466,70.0345,30.963,0.000339544,1997
11,185,5.12984,3.28897,1.71739,8.28788,0.140655,0.428559,0.0764937,1.94485,1.39565,0.240967,0.75741,0.00162323,70.0025,30.9704,0.000375541,1997
11,186,5.26768,3.36479,1.75981,8.34585,0.142026,0.433602,0.0765467,1.9414,1.39996,0.241785,0.756454,0.00176088,69.9679,30.9728,0.000412066,1997
11,187,5.40601,3.44062,1.8023,8.40292,0.143371,0.439125,0.0762319,1.93699,1.40393,0.242802,0.755302,0.00189641,69.9315,30.9727,0.000448814,1997
11,188,5.54478,3.51643,1.84485,8.45911,0.144685,0.445444,0.0752054,1.9317,1.40754,0.24401,0.753961,0.00202865,69.8939,30.9728,0.000485464,1997
11,189,5.68378,3.59212,1.8874,8.51438,0.145963,0.451702,0.0736925,1.92558,1.41076,0.2454,0.752443,0.00215644,69.856,30.976,0.00052167,1997
11,190,5.82277,3.66755,1.92987,8.56866,0.147194,0.457079,0.0723796,1.91876,1.41355,0.246957,0.750765,0.0022786,69.8188,30.9848,0.000557057,1997
11,191,5.96154,3.74263,1.9722,8.62193,0.14837,0.461866,0.0714595,1.91137,1.41589,0.248657,0.748949,0.00239402,69.7835,31.002,0.000591226,1997
11,192,6.0999,3.81725,2.01434,8.67414,0.149478,0.466381,0.0706746,1.90363,1.41775,0.25047,0.747028,0.00250161,69.7516,31.0305,0.00062376,1997
11,193,6.23761,3.8913,2.05622,8.72526,0.150504,0.470841,0.0697755,1.89577,1.4191,0.252357,0.745043,0.00260032,69.7246,31.0732,0.000654224,1997
11,194,6.37448,3.96469,2.09778,8.77525,0.151434,0.474411,0.0689886,1.88806,1.41994,0.25427,0.743041,0.00268914,69.7043,31.1334,0.000682164,1997
11,195,6.51045,4.03739,2.139,8.82415,0.15225,0.476531,0.0687793,1.88081,1.42025,0.256156,0.741077,0.00276709,69.6924,31.2141,0.000707112,1997
11,196,6.63618,4.10443,2.17706,8.8687,0.144315,0.451256,0.0683432,1.87938,1.42386,0.256662,0.740485,0.00285289,69.7189,31.5438,0.000737659,1997
11,197,6.76068,4.17065,2.2147,8.91222,0.144745,0.451898,0.0667922,1.87351,1.42277,0.258414,0.738681,0.00290499,69.7266,31.6582,0.000754664,1997
11,198,6.88363,4.23589,2.25183,8.95462,0.145026,0.452807,0.0665904,1.86897,1.42117,0.259957,0.7371,0.00294312,69.7472,31.8043,0.000767183,1997
11,199,7.00559,4.30045,2.28862,8.99614,0.14604,0.455563,0.0662771,1.86581,1.41806,0.261208,0.735836,0.00295528,69.7834,32.6371,0.000775061,1997
11,200,7.12789,4.36504,2.32546,9.03725,0.14843,0.460854,0.0661629,1.86407,1.41285,0.262243,0.734825,0.00293209,69.8343,34.627,0.000778045,1997
11,201,7.25146,4.43016,2.36264,9.07827,0.151808,0.467902,0.066353,1.86458,1.40665,0.263197,0.733922,0.0028806,69.8981,37.4128,0.000776604,1997
11,202,7.37681,4.49607,2.40031,9.11935,0.155716,0.475744,0.0667769,1.86769,1.40031,0.264259,0.732933,0.00280791,69.9721,40.5931,0.000770992,1997
11,203,7.50405,4.56282,2.43851,9.16055,0.159774,0.483549,0.0673725,1.87333,1.39433,0.265556,0.731724,0.00271996,70.0533,43.8369,0.000761431,1997
11,204,7.63312,4.63038,2.47721,9.20182,0.163716,0.490646,0.068148,1.88108,1.38894,0.267132,0.730247,0.00262094,70.139,46.9237,0.00074813,1997
11,205,7.76379,4.69863,2.51634,9.24308,0.167393,0.49674,0.0691138,1.89042,1.38419,0.268962,0.728525,0.00251354,70.2266,49.735,0.000731294,1997
11,206,7.89576,4.76741,2.55582,9.28425,0.170738,0.501874,0.0702007,1.90079,1.38005,0.270983,0.726618,0.00239938,70.3141,52.2256,0.000711133,1997
11,207,8.02866,4.83652,2.59554,9.3252,0.17374,0.506192,0.0713067,1.91174,1.37646,0.273122,0.724599,0.00227947,70.3999,54.395,0.000687872,1997
11,208,8.16211,4.90577,2.63537,9.36583,0.176411,0.509892,0.0723367,1.92286,1.37336,0.275307,0.722538,0.00215454,70.4826,56.2664,0.00066175,1997
11,209,8.29576,4.97497,2.67522,9.40604,0.178779,0.513214,0.0731901,1.93388,1.37067,0.27748,0.720494,0.00202518,70.5615,57.8725,0.000633031,1997
11,210,8.42927,5.04395,2.71498,9.44573,0.180877,0.516267,0.0738132,1.94458,1.36834,0.279595,0.718513,0.001892,70.6358,59.2483,0.000601998,1997
11,211,8.56236,5.11258,2.75458,9.48485,0.182735,0.519084,0.0742205,1.9548,1.36631,0.281616,0.716629,0.00175564,70.7054,60.4267,0.000568962,1997
11,212,8.68296,5.17464,2.79043,9.51991,0.172389,0.487884,0.0731095,1.96532,1.36516,0.283154,0.71521,0.00163604,70.7866,61.5604,0.000541429,1997
12,141,0.361003,0.343871,0.154232,4.15476,0.114921,0.127051,0.030252,1.00204,1.00363,0.699783,0.298855,0.00136185,42.8353,6.57387,0.00035078,1999
12,142,0.41732,0.388602,0.175646,4.31308,0.113508,0.143263,0.0345089,1.01577,1.01085,0.684753,0.314004,0.00124358,46.1747,8.61228,0.000382388,1999
12,143,0.481882,0.438795,0.199872,4.47632,0.113329,0.162516,0.0382536,1.0326,1.02104,0.667893,0.330968,0.0011392,49.4057,11.1198,0.000413739,1999
12,144,0.55562,0.494927,0.227188,4.64417,0.113858,0.183798,0.0422644,1.05248,1.03427,0.649686,0.349263,0.00105119,52.4397,14.0815,0.000444723,1999
12,145,0.639436,0.557424,0.257848,4.81617,0.115307,0.207027,0.0465236,1.07498,1.05024,0.63086,0.368161,0.000978117,55.2032,17.4411,0.000474716,1999
12,146,0.734107,0.6266,0.29206,4.99159,0.117712,0.231921,0.0507503,1.09938,1.06826,0.612177,0.386906,0.000917263,57.6547,21.1066,0.00050284,1999
12,147,0.840157,0.702577,0.329933,5.16938,0.120938,0.257931,0.0553933,1.12479,1.08749,0.594215,0.404919,0.000866104,59.791,24.9727,0.000528459,1999
12,148,0.957962,0.785374,0.37153,5.34853,0.124969,0.284744,0.0602553,1.15018,1.10694,0.577508,0.42167,0.000821825,61.6199,28.9112,0.000550423,1999
12,149,1.08766,0.874857,0.416829,5.52796,0.129642,0.311858,0.0650138,1.17465,1.12575,0.562374,0.436844,0.00078205,63.1666,32.8014,0.000567667,1999
12,150,1.22932,0.970875,0.465797,5.70684,0.134902,0.339185,0.0701258,1.19752,1.14326,0.548961,0.450294,0.000744708,64.4637,36.5394,0.000579155,1999
12,151,1.39049,1.07826,0.520957,5.89289,0.147509,0.384346,0.0757074,1.21702,1.15777,0.538367,0.460931,0.000701786,65.4723,39.8268,0.000576962,1999
12,152,1.56303,1.19128,0.579432,6.07529,0.153074,0.410853,0.0823357,1.2363,1.17227,0.527833,0.4715,0.000666787,66.4052,43.1389,0.000576959,1999
12,153,1.74883,1.31104,0.641822,6.25589,0.16048,0.441397,0.0875554,1.2533,1.18479,0.518907,0.480464,0.000629348,67.1745,46.1253,0.000568468,1999
12,154,1.94797,1.43744,0.708114,6.43448,0.168257,0.472291,0.0925717,1.26828,1.19556,0.511292,0.488119,0.000589225,67.8146,48.8011,0.000551839,1999
12,155,2.16029,1.57024,0.778207,6.61073,0.176176,0.502981,0.0972951,1.28146,1.20477,0.504792,0.494662,0.000545884,68.3485,51.1759,0.000527034,1999
12,156,2.38522,1.70896,0.851878,6.78411,0.183939,0.532701,0.101354,1.29308,1.21262,0.499225,0.500276,0.000499036,68.7951,53.2673,0.000494241,1999
12,157,2.60484,1.84263,0.923285,6.94216,0.179609,0.526516,0.104571,1.30335,1.2193,0.494431,0.505121,0.00044867,69.1695,55.0974,0.000453913,1999
12,158,2.82717,1.97636,0.995101,7.09251,0.181153,0.53658,0.106726,1.31217,1.22469,0.490496,0.509111,0.000393381,69.4717,56.6286,0.000404807,1999
12,159,3.05127,2.10969,1.06705,7.23553,0.182435,0.544888,0.107734,1.32002,1.22923,0.487083,0.512581,0.000335635,69.7239,57.9406,0.000350206,1999
12,160,3.27628,2.2422,1.13889,7.37159,0.183492,0.551551,0.108579,1.32711,1.23309,0.48406,0.515663,0.000276817,69.9355,59.0637,0.000292088,1999
12,161,3.50159,2.37364,1.21046,7.50113,0.184358,0.557094,0.10931,1.3336,1.23641,0.481321,0.518461,0.00021856,70.1139,60.0242,0.000232685,1999
12,162,3.72678,2.50386,1.28165,7.62465,0.185062,0.56202,0.109639,1.33965,1.2393,0.478774,0.521063,0.000162739,70.2649,60.8447,0.000174463,1999
12,163,3.95164,2.63282,1.35241,7.74266,0.18563,0.566775,0.109238,1.34538,1.24186,0.476345,0.523544,0.000111438,70.3934,61.5443,0.000120089,1999
12,164,4.17589,2.76043,1.42269,7.85555,0.186083,0.571274,0.108011,1.35088,1.24416,0.473966,0.525967,6.6938e-05,70.5029,62.1388,7.23973e-05,1999
12,165,4.39905,2.88651,1.49235,7.96357,0.186437,0.575011,0.106295,1.35625,1.24628,0.47158,0.528389,3.17134e-05,70.5965,62.6408,3.43752e-05,1999
12,166,4.62057,3.0108,1.56125,8.06691,0.186705,0.577729,0.104524,1.36158,1.24825,0.469133,0.530858,8.43787e-06,70.6763,63.0599,9.15368e-06,1999
12,167,4.83986,3.13305,1.62922,8.1657,0.186895,0.579166,0.103002,1.36694,1.25012,0.466576,0.533424,0,70.7441,63.4034,0,1999
12,168,5.0562,3.25293,1.69605,8.26,0.187046,0.578886,0.101979,1.37281,1.25203,0.463675,0.536325,2.59227e-08,70.8035,63.6865,5.832e-07,1999
12,169,5.26883,3.37008,1.76155,8.34986,0.187194,0.576727,0.101604,1.37954,1.25407,0.460258,0.539742,1.05375e-07,70.8576,63.9243,2.36089e-06,1999
12,170,5.47722,3.48427,1.82555,8.43538,0.18734,0.573137,0.101787,1.38699,1.25622,0.456365,0.543635,2.40754e-07,70.9068,64.1215,5.36245e-06,1999
12,171,5.68095,3.59535,1.88795,8.51673,0.18748,0.568582,0.102268,1.39501,1.25847,0.452031,0.547969,4.34236e-07,70.9517,64.2825,9.60035e-06,1999
12,172,5.87981,3.70326,1.94871,8.5941,0.187611,0.563547,0.102743,1.40347,1.2608,0.447292,0.552708,6.87727e-07,70.9927,64.4108,1.50706e-05,1999
12,173,6.07372,3.80801,2.00782,8.66772,0.18773,0.558462,0.102896,1.41225,1.26318,0.442181,0.557818,1.00284e-06,71.0303,64.5095,2.17536e-05,1999
12,174,6.26272,3.90968,2.0653,8.73784,0.18783,0.553806,0.102387,1.42123,1.2656,0.436733,0.563266,1.38085e-06,71.0647,64.5811,2.96155e-05,1999
12,175,6.44687,4.00835,2.12119,8.80469,0.187906,0.549607,0.101044,1.4303,1.26804,0.430979,0.569019,1.82273e-06,71.0964,64.6279,3.86094e-05,1999
12,176,6.62614,4.10405,2.1755,8.86845,0.187951,0.545615,0.0990221,1.43937,1.27045,0.424955,0.575043,2.32903e-06,71.1255,64.652,4.86761e-05,1999
12,177,6.80046,4.19676,2.2282,8.92925,0.187958,0.541556,0.0966458,1.44834,1.27283,0.418693,0.581304,2.89987e-06,71.1524,64.6547,5.97445e-05,1999
12,178,6.96968,4.28647,2.27928,8.98719,0.187918,0.537171,0.0942487,1.45713,1.27513,0.412232,0.587764,3.53485e-06,71.1772,64.6373,7.17319e-05,1999
12,179,7.13369,4.37314,2.3287,9.04237,0.187826,0.532135,0.0921635,1.46567,1.27733,0.405608,0.594388,4.23297e-06,71.2002,64.6009,8.45449e-05,1999
12,180,7.29242,4.45676,2.37645,9.0949,0.187674,0.526537,0.0905344,1.47389,1.27941,0.398861,0.601134,4.99258e-06,71.2213,64.5466,9.808e-05,1999
12,181,7.44588,4.53738,2.42255,9.1449,0.187455,0.520711,0.0892154,1.48172,1.28132,0.392031,0.607963,5.8113e-06,71.2409,64.4751,0.000112225,1999
12,182,7.59413,4.61506,2.46703,9.19249,0.187164,0.514994,0.0879436,1.48911,1.28304,0.385162,0.614832,6.686e-06,71.259,64.3877,0.000126861,1999
12,183,7.73726,4.68985,2.5099,9.2378,0.186798,0.509645,0.0864822,1.49599,1.28454,0.378298,0.621695,7.61266e-06,71.2757,64.2853,0.000141862,1999
12,184,7.87531,4.76183,2.55121,9.28093,0.186354,0.504236,0.0849424,1.50234,1.28581,0.371486,0.628506,8.58624e-06,71.2911,64.1693,0.000157097,1999
12,185,8.00836,4.83104,2.59098,9.32197,0.185832,0.49855,0.0836051,1.5081,1.28681,0.364775,0.635215,9.60055e-06,71.3054,64.0411,0.000172427,1999
12,186,8.13652,4.89755,2.62924,9.36103,0.185235,0.493043,0.0823751,1.51325,1.28754,0.358217,0.641773,1.0648e-05,71.3185,63.9024,0.000187712,1999
12,187,8.25986,4.96144,2.66602,9.39821,0.184567,0.488167,0.0809053,1.51777,1.28798,0.351863,0.648126,1.17197e-05,71.3306,63.7554,0.000202804,1999
12,188,8.37842,5.02274,2.70134,9.43357,0.183837,0.484293,0.0788804,1.52166,1.28814,0.345767,0.65422,1.28048e-05,71.3418,63.6023,0.000217556,1999
12,189,8.4922,5.08145,2.73521,9.46715,0.183059,0.480945,0.0764359,1.52492,1.28803,0.339985,0.660001,1.38907e-05,71.352,63.4463,0.000231812,1999
12,190,8.60129,5.13765,2.76765,9.49905,0.182249,0.477514,0.0740835,1.52756,1.28768,0.334571,0.665414,1.49623e-05,71.3613,63.2905,0.000245417,1999
12,191,8.70589,5.19144,2.79872,9.52935,0.18143,0.474066,0.0720601,1.52965,1.28712,0.329582,0.670402,1.60028e-05,71.3699,63.1391,0.000258212,1999
12,192,8.80624,5.24297,2.82852,9.55818,0.180627,0.470685,0.0703679,1.53121,1.28642,0.32507,0.674913,1.6993e-05,71.3776,62.9968,0.000270043,1999
12,193,8.90271,5.29243,2.85714,9.58567,0.179871,0.467446,0.0690086,1.53234,1.28562,0.321089,0.678893,1.79118e-05,71.3846,62.8685,0.000280754,1999
12,194,8.99578,5.34009,2.88473,9.61198,0.179196,0.464297,0.0680566,1.53312,1.28482,0.317691,0.68229,1.87363e-05,71.3908,62.7601,0.000290193,1999
