"","year","jd","Acartia.spp...unidentified.","Appendicularia","Calanus.finmarchicus","Calanus.helgolandicus","Calanus.I.IV","Calanus.V.VI.unidentified","Centropages.hamatus","Centropages.spp...Unidentified.","Centropages.typicus","Copepod.nauplii","Decapoda.larvae..Total.","Euphausiacea.Total","Evadne.spp.","Fish.eggs..Total.","Fish.larvae","Hyperiidea..Total.","Metridia.lucens","Oithona.spp.","Para.Pseudocalanus.spp.","Podon.spp.","Temora.longicornis"
"41636",1979,1,0,0,441.144405105568,0.196936704188965,0,0,0,0,0,40.5290028910623,0,20.3484456030985,0,0,0,0,0.0456664821307744,118.875561296672,24.8311496586087,0,0
"41637",1979,2,0,0,441.144405105568,0.196936704188965,0,0,0,0,0,40.5290028910623,0,20.3484456030985,0,0,0,0,0.0456664821307744,118.875561296672,24.8311496586087,0,0
"41638",1979,3,0,0,441.144405105568,0.196936704188965,0,0,0,0,0,40.5290028910623,0,20.3484456030985,0,0,0,0,0.0456664821307744,118.875561296672,24.8311496586087,0,0
"41639",1979,4,0,0,441.144405105568,0.196936704188965,0,0,0,0,0,40.5290028910623,0,20.3484456030985,0,0,0,0,0.0456664821307744,118.875561296672,24.8311496586087,0,0
"41640",1979,5,0,0,441.144405105568,0.196936704188965,0,0,0,0,0,40.5290028910623,0,20.3484456030985,0,0,0,0,0.0456664821307744,118.875561296672,24.8311496586087,0,0
"41641",1979,6,0,0,441.144405105568,0.196936704188965,0,0,0,0,0,40.5290028910623,0,20.3484456030985,0,0,0,0,0.0456664821307744,118.875561296672,24.8311496586087,0,0
"41642",1979,7,0,0,441.144405105568,0.196936704188965,0,0,0,0,0,40.5290028910623,0,20.3484456030985,0,0,0,0,0.0456664821307744,118.875561296672,24.8311496586087,0,0
"41643",1979,8,0,0,441.144405105568,0.196936704188965,0,0,0,0,0,40.5290028910623,0,20.3484456030985,0,0,0,0,0.0456664821307744,118.875561296672,24.8311496586087,0,0
"41644",1979,9,0,0,441.144405105568,0.196936704188965,0,0,0,0,0,40.5290028910623,0,20.3484456030985,0,0,0,0,0.0456664821307744,118.875561296672,24.8311496586087,0,0
"41645",1979,10,0,0,441.144405105568,0.196936704188965,0,0,0,0,0,40.5290028910623,0,20.3484456030985,0,0,0,0,0.0456664821307744,118.875561296672,24.8311496586087,0,0
"41646",1979,11,0,0,441.144405105568,0.196936704188965,0,0,0,0,0,40.5290028910623,0,20.3484456030985,0,0,0,0,0.0456664821307744,118.875561296672,24.8311496586087,0,0
"41647",1979,12,0,0,441.144405105568,0.196936704188965,0,0,0,0,0,40.5290028910623,0,20.3484456030985,0,0,0,0,0.0456664821307744,118.875561296672,24.8311496586087,0,0
"41648",1979,13,0,0,441.144405105568,0.196936704188965,0,0,0,0,0,40.5290028910623,0,20.3484456030985,0,0,0,0,0.0456664821307744,118.875561296672,24.8311496586087,0,0
"41649",1979,14,0,0,441.144405105568,0.196936704188965,0,0,0,0,0,40.5290028910623,0,20.3484456030985,0,0,0,0,0.0456664821307744,118.875561296672,24.8311496586087,0,0
"41650",1979,15,0,0,441.144405105568,0.196936704188965,0,0,0,0,0,40.5290028910623,0,20.3484456030985,0,0,0,0,0.0456664821307744,118.875561296672,24.8311496586087,0,0
"41651",1979,16,0,0,441.144405105568,0.196936704188965,0,0,0,0,0,40.5290028910623,0,20.3484456030985,0,0,0,0,0.0456664821307744,118.875561296672,24.8311496586087,0,0
"41652",1979,17,0,0,441.144405105568,0.196936704188965,0,0,0,0,0,40.5290028910623,0,20.3484456030985,0,0,0,0,0.0456664821307744,118.875561296672,24.8311496586087,0,0
"41653",1979,18,0,0,441.144405105568,0.196936704188965,0,0,0,0,0,40.5290028910623,0,20.3484456030985,0,0,0,0,0.0456664821307744,118.875561296672,24.8311496586087,0,0
"41654",1979,19,0,0,441.144405105568,0.196936704188965,0,0,0,0,0,40.5290028910623,0,20.3484456030985,0,0,0,0,0.0456664821307744,118.875561296672,24.8311496586087,0,0
"41655",1979,20,0,0,441.144405105568,0.196936704188965,0,0,0,0,0,40.5290028910623,0,20.3484456030985,0,0,0,0,0.0456664821307744,118.875561296672,24.8311496586087,0,0
"41656",1979,21,0,0,441.144405105568,0.196936704188965,0,0,0,0,0,40.5290028910623,0,20.3484456030985,0,0,0,0,0.0456664821307744,118.875561296672,24.8311496586087,0,0
"41657",1979,22,0,0,441.144405105568,0.196936704188965,0,0,0,0,0,40.5290028910623,0,20.3484456030985,0,0,0,0,0.0456664821307744,118.875561296672,24.8311496586087,0,0
"41658",1979,23,0,0,441.144405105568,0.196936704188965,0,0,0,0,0,40.5290028910623,0,20.3484456030985,0,0,0,0,0.0456664821307744,118.875561296672,24.8311496586087,0,0
"41659",1979,24,0,0,441.144405105568,0.196936704188965,0,0,0,0,0,40.5290028910623,0,20.3484456030985,0,0,0,0,0.0456664821307744,118.875561296672,24.8311496586087,0,0
"41660",1979,25,0,0,441.144405105568,0.196936704188965,0,0,0,0,0,40.5290028910623,0,20.3484456030985,0,0,0,0,0.0456664821307744,118.875561296672,24.8311496586087,0,0
"41661",1979,26,0,0,441.144405105568,0.196936704188965,0,0,0,0,0,40.5290028910623,0,20.3484456030985,0,0,0,0,0.0456664821307744,118.875561296672,24.8311496586087,0,0
"41662",1979,27,0,0,441.144405105568,0.196936704188965,0,0,0,0,0,40.5290028910623,0,20.3484456030985,0,0,0,0,0.0456664821307744,118.875561296672,24.8311496586087,0,0
"41663",1979,28,0,0,441.144405105568,0.196936704188965,0,0,0,0,0,40.5290028910623,0,20.3484456030985,0,0,0,0,0.0456664821307744,118.875561296672,24.8311496586087,0,0
"41664",1979,29,0,0,441.144405105568,0.196936704188965,0,0,0,0,0,40.5290028910623,0,20.3484456030985,0,0,0,0,0.0456664821307744,118.875561296672,24.8311496586087,0,0
"41665",1979,30,0,0,441.144405105568,0.196936704188965,0,0,0,0,0,40.5290028910623,0,20.3484456030985,0,0,0,0,0.0456664821307744,118.875561296672,24.8311496586087,0,0
"41666",1979,31,0,0,441.144405105568,0.196936704188965,0,0,0,0,0,40.5290028910623,0,20.3484456030985,0,0,0,0,0.0456664821307744,118.875561296672,24.8311496586087,0,0
"41667",1979,32,0,0,441.144405105568,0.196936704188965,0,0,0,0,0,40.5290028910623,0,20.3484456030985,0,0,0,0,0.0456664821307744,118.875561296672,24.8311496586087,0,0
"41668",1979,33,0,0,441.144405105568,0.196936704188965,0,0,0,0,0,40.5290028910623,0,20.3484456030985,0,0,0,0,0.0456664821307744,118.875561296672,24.8311496586087,0,0
"41669",1979,34,0,0,441.144405105568,0.196936704188965,0,0,0,0,0,40.5290028910623,0,20.3484456030985,0,0,0,0,0.0456664821307744,118.875561296672,24.8311496586087,0,0
"41670",1979,35,0,0,441.144405105568,0.196936704188965,0,0,0,0,0,40.5290028910623,0,20.3484456030985,0,0,0,0,0.0456664821307744,118.875561296672,24.8311496586087,0,0
"41671",1979,36,0,0,441.144405105568,0.196936704188965,0,0,0,0,0,40.5290028910623,0,20.3484456030985,0,0,0,0,0.0456664821307744,118.875561296672,24.8311496586087,0,0
"41672",1979,37,0,0,441.144405105568,0.196936704188965,0,0,0,0,0,40.5290028910623,0,20.3484456030985,0,0,0,0,0.0456664821307744,118.875561296672,24.8311496586087,0,0
"41673",1979,38,0,0,441.144405105568,0.196936704188965,0,0,0,0,0,40.5290028910623,0,20.3484456030985,0,0,0,0,0.0456664821307744,118.875561296672,24.8311496586087,0,0
"41674",1979,39,0,0,441.144405105568,0.196936704188965,0,0,0,0,0,40.5290028910623,0,20.3484456030985,0,0,0,0,0.0456664821307744,118.875561296672,24.8311496586087,0,0
"41675",1979,40,0,0,441.144405105568,0.196936704188965,0,0,0,0,0,40.5290028910623,0,20.3484456030985,0,0,0,0,0.0456664821307744,118.875561296672,24.8311496586087,0,0
"41676",1979,41,0,0,441.144405105568,0.196936704188965,0,0,0,0,0,40.5290028910623,0,20.3484456030985,0,0,0,0,0.0456664821307744,118.875561296672,24.8311496586087,0,0
"41677",1979,42,0,0,441.144405105568,0.196936704188965,0,0,0,0,0,40.5290028910623,0,20.3484456030985,0,0,0,0,0.0456664821307744,118.875561296672,24.8311496586087,0,0
"41678",1979,43,0,0,441.144405105568,0.196936704188965,0,0,0,0,0,40.5290028910623,0,20.3484456030985,0,0,0,0,0.0456664821307744,118.875561296672,24.8311496586087,0,0
"41679",1979,44,0,0,441.144405105568,0.196936704188965,0,0,0,0,0,40.5290028910623,0,20.3484456030985,0,0,0,0,0.0456664821307744,118.875561296672,24.8311496586087,0,0
"41680",1979,45,0,0,441.144405105568,0.196936704188965,0,0,0,0,0,40.5290028910623,0,20.3484456030985,0,0,0,0,0.0456664821307744,118.875561296672,24.8311496586087,0,0
"41681",1979,46,0,0,441.144405105568,0.196936704188965,0,0,0,0,0,40.5290028910623,0,20.3484456030985,0,0,0,0,0.0456664821307744,118.875561296672,24.8311496586087,0,0
"41682",1979,47,0,0,440.865848050054,0.205606570389052,0.0221124396514053,0,0,0,0,40.5572202667493,0,20.2889465264881,0,0,0,0,0.0455176432260519,118.488115022817,25.0623150825058,0,0
"41683",1979,48,0,0,440.045615416,0.230827999334759,0.0877253748158546,0,0,0,0,40.6393071778386,0,20.1158583036218,0,0,0,0,0.0450846573214045,117.360998589782,25.7347963156612,0,0
"41684",1979,49,0,0,438.706865002131,0.271418736544258,0.195752229808698,0,0,0,0,40.7714158003731,0,19.8372944449462,0,0,0,0,0.0443878206311127,115.547045580366,26.8170708002707,0,0
"41685",1979,50,0,0,436.872754607176,0.326196527535717,0.345106428945287,0,0,0,0,40.9496983103954,0,19.4613684609083,0,0,0,0,0.0434474293694568,113.099089577367,28.2776159785301,0,0
"41686",1979,51,0,0,434.566442029863,0.393979117827306,0.53470139654097,0,0,0,0,41.1703068839482,0,18.9961938619549,0,0,0,0,0.042283779750717,110.069964163586,30.0849092926352,0,0
"41687",1979,52,0,0,431.811085068919,0.473584252937196,0.763450556911099,0,0,0,0,41.4293936970741,0,18.4498841585329,0,0,0,0,0.0409171679891739,106.512502921819,32.207428184782,0,0
"41688",1979,53,0,0,428.629841523071,0.563829678383557,1.03026733437102,0,0,0,0,41.7231109258158,0,17.8305528610892,0,0,0,0,0.0393678902991076,102.479539434865,34.6136500971662,0,0
"41689",1979,54,0,0,425.045869191048,0.663533139684558,1.33406515323609,0,0,0,0,42.0476107462161,0,17.1463134800705,0,0,0,0,0.0376562428947986,98.0239072855228,37.2720524719836,0,0
"41690",1979,55,0,0,421.082325871577,0.771512382358369,1.67375743782166,0,0,0,0,42.3990453343175,0,16.4052795259239,0,0,0,0,0.0358025219905271,93.1984400565912,40.1511127514302,0,0
"41691",1979,56,0,0,416.762369363385,0.88658515192316,2.04825761244307,0,0,0,0,42.7735668661629,0,15.615564509096,0,0,0,0,0.0338270238005736,88.0559713308685,43.2193083777017,0,0
"41692",1979,57,0,0,412.1091574652,1.0075691938971,2.45647910141569,0,0,0,0,43.1673275177948,0,14.7852819400339,0,0,0,0,0.0317500445392184,82.6493346911532,46.445116792994,0,0
"41693",1979,58,0,0,407.14584797575,1.13328225379836,2.89733532905484,0,0,0,0,43.576479465256,0,13.9225453291843,0,0,0,0,0.0295918804207418,77.0313637202438,49.797015439503,0,0
"41694",1979,59,0,0,401.895598693763,1.26254207714512,3.3697397196759,0,0,0,0,43.9971748845891,0,13.0354681869941,0,0,0,0,0.0273728276594242,71.2548920009388,53.2434817594244,0,0
"41695",1979,60,0,0,396.381567417965,1.39416640945553,3.8726056975942,0,0,0,0,44.4255659518369,0,12.1321640239102,0,0,0,0,0.0251131824695459,65.3727531160368,56.7529931949542,0,0
"41696",1979,61,0,0,390.626911947085,1.52697299624777,4.4048466871251,0,0,0,0,44.857804843042,0,11.2207463503795,0,0,0,0,0.0228332410653872,59.4377806483362,60.2940271882881,0,0
"41697",1979,62,0,0,384.65479007985,1.65977958304001,4.96537611258395,0,0,0,0,45.2900437342471,0,10.3093286768487,0,0,0,0,0.0205532996612285,53.5028081806357,63.835061181622,0,0
"41698",1979,63,0,0,378.488359614989,1.79140391535043,5.5531073982861,0,0,0,0,45.7184348014949,0,9.40602451376483,0,0,0,0,0.0182936544713502,47.6206692957337,67.3445726171518,0,0
"41699",1979,64,0,0,372.150778351227,1.92066373869718,6.1669539685469,0,0,0,0,46.139130220828,0,8.51894737157466,0,0,0,0,0.0160746017100326,41.8441975764287,70.7910389370732,0,0
"41700",1979,65,0,0,365.665204087294,2.04637679859844,6.8058292476817,0,0,0,0,46.5482821682892,0,7.65621076072507,0,0,0,0,0.013916437591556,36.2262266055193,74.1429375835822,0,0
"41701",1979,66,0,0,359.054794621917,2.16736084057238,7.46864666000584,0,0,0,0,46.9420428199211,0,6.82592819166293,0,0,0,0,0.0118394583302008,30.819589965804,77.3687459988745,0,0
"41702",1979,67,0,0,352.342707753823,2.28243361013717,8.15431962983469,0,0,0,0,47.3165643517665,0,6.03621317483509,0,0,0,0,0.00986396014024727,25.6771212400813,80.4369416251461,0,0
"41703",1979,68,0,0,345.55210128174,2.39041285281098,8.86176158148359,0,0,0,0,47.667998939868,0,5.29517922068843,0,0,0,0,0.00801023923597584,20.8516540111497,83.3160019045926,0,0
"41704",1979,69,0,0,338.706133004395,2.49011631411198,9.58988593926789,0,0,0,0,47.9924987602682,0,4.61093983966979,0,0,0,0,0.0062985918316668,16.3960218618077,85.9744042794101,0,0
"41705",1979,70,0,0,331.827960720517,2.58036173955834,10.3376061275029,0,0,0,0,48.28621598901,0,3.99160854222604,0,0,0,0,0.00474931414160053,12.3630583748539,88.3806261917942,0,0
"41706",1979,71,0,0,324.940742228832,2.65996687466823,11.1038355705041,0,0,0,0,48.5453028021359,0,3.44529883880405,0,0,0,0,0.00338270238005736,8.80559713308685,90.503145083941,0,0
"41707",1979,72,0,0,318.067635328069,2.72774946495982,11.8874876925867,0,0,0,0,48.7659113756886,0,2.98012423985066,0,0,0,0,0.00221905276131763,5.77647171930498,92.3104383980461,0,0
"41708",1979,73,0,0,311.231797816955,2.78252725595128,12.6874759180661,0,0,0,0,48.9441938857109,0,2.60419825581275,0,0,0,0,0.00127866149966168,3.32851571630682,93.7709835763055,0,0
"41709",1979,74,0,0,304.456387494218,2.82311799316078,13.5027136712577,0,0,0,0,49.0763025082454,0,2.32563439713718,0,0,0,0,0.000581824809369857,1.51456270689097,94.853258060915,0,0
"41710",1979,75,0,0,297.764562158585,2.84833942210649,14.3321143764767,0,0,0,0,49.1583894193348,0,2.15254617427081,0,0,0,0,0.000148838904722517,0.387446273855829,95.5257392940704,0,0
"41711",1979,76,0,0,291.179479608784,2.85700928830658,15.1745914580386,0,0,0,0,49.1866067950217,0,2.0930470976605,0,0,0,0,0,0,95.7569047179676,0,0
"41712",1979,77,0,0,284.165191074612,2.85187319248537,16.1687166363489,0,0,0,0,49.0262948913935,0,2.13855813656285,0,0,0.0000492735352777484,0,0,0,95.4766025217301,0,0
"41713",1979,78,0,0,276.224766511716,2.83687776216227,17.4419282447486,0,0,0,0,48.5599329899296,0,2.27095388609698,0,0,0.000195109393940869,0,0,0,94.6611779508574,0,0
"41714",1979,79,0,0,267.439891807603,2.81264228304808,18.9764396269566,0,0,0,0,47.8093818047611,0,2.48402829550348,0,0,0.000434530455234173,0,0,0,93.3488540321092,0,0
"41715",1979,80,0,0,257.892252849778,2.77978604085358,20.7544641266918,0,0,0,0,46.7965020500192,0,2.77157531402292,0,0,0.000764559598402474,0,0,0,91.5778537922451,0,0
"41716",1979,81,0,0,247.663535525746,2.73892832128959,22.758215087673,0,0,0,0,45.5431544398349,0,3.1273888908959,0,0,0.00118221970269058,0,0,0,89.3864002580247,0,0
"41717",1979,82,0,0,236.835425723014,2.69068841006688,24.9699058536189,0,0,0,0,44.0711996883395,0,3.545262975363,0,0,0.00168453364734332,0,0,0,86.8127164562078,0,0
"41718",1979,83,0,0,225.489609329086,2.63568559289626,27.3717497682485,0,0,0,0,42.4024985096639,0,4.01899151666481,0,0,0.00226852431160548,0,0,0,83.895025413554,0,0
"41719",1979,84,0,0,213.707772231469,2.57453915548853,29.9459601752805,0,0,0,0,40.5589116179394,0,4.54236846404192,0,0,0.00293121457472189,0,0,0,80.6715501568229,0,0
"41720",1979,85,0,0,201.571600317667,2.50786838355447,32.6747504184338,0,0,0,0,38.562299727297,0,5.10918776673492,0,0,0.00366962731593736,0,0,0,77.1805137127742,0,0
"41721",1979,86,0,0,189.162779475187,2.43629256280488,35.5403338414273,0,0,0,0,36.434523551868,0,5.7132433739844,0,0,0.0044807854144967,0,0,0,73.4601391081676,0,0
"41722",1979,87,0,0,176.562995591534,2.36043097895056,38.5249237879797,0,0,0,0,34.1974438057833,0,6.34832923503093,0,0,0.00536171174964472,0,0,0,69.5486493697627,0,0
"41723",1979,88,0,0,163.853934554213,2.28090291770229,41.6107336018099,0,0,0,0,31.8729212031741,0,7.00823929911512,0,0,0.00630942920062624,0,0,0,65.4842675243192,0,0
"41724",1979,89,0,0,151.117282250731,2.19832766477089,44.7799766266367,0,0,0,0,29.4828164581715,0,7.68676751547754,0,0,0.00732096064668607,0,0,0,61.3052165985967,0,0
"41725",1979,90,0,0,138.434724568592,2.11332450586714,48.014866206179,0,0,0,0,27.0489902849068,0,8.37770783335879,0,0,0.00839332896706901,0,0,0,57.0497196193548,0,0
"41726",1979,91,0,0,125.887947395302,2.02651272670183,51.2976156841555,0,0,0,0,24.5933033975109,0,9.07485420199945,0,0,0.00952355704101989,0,0,0,52.7559996133533,0,0
"41727",1979,92,0,0,113.558636618367,1.93851161298577,54.6104384042852,0,0,0,0,22.137616510115,0,9.77200057064011,0,0,0.0107086677477835,0,0,0,48.4622796073519,0,0
"41728",1979,93,0,0,101.528478125292,1.84994045042974,57.9355477102868,0,0,0,0,19.7037903368502,0,10.4629408885214,0,0,0.0119456839666047,0,0,0,44.20678262811,0,0
"41729",1979,94,0,0,89.879157803583,1.76141852474455,61.2551569458791,0,0,0,0,17.3136855918477,0,11.1414691048838,0,0,0.0132316285767282,0,0,0,40.0277317023875,0,0
"41730",1979,95,0,0,78.6923615407455,1.67356512164098,64.5514794547811,0,0,0,0,14.9891629892385,0,11.801379168968,0,0,0.014563524457399,0,0,0,35.963349856944,0,0
"41731",1979,96,0,0,68.049775224285,1.58699952682984,67.8067285807115,0,0,0,0,12.7520832431538,0,12.4364650300145,0,0,0.0159383944878617,0,0,0,32.0518601185391,0,0
"41732",1979,97,0,0,58.0330847417071,1.50234102602191,71.0031176673892,0,0,0,0,10.6243070677247,0,13.040520637264,0,0,0.0173532615473612,0,0,0,28.3314855139325,0,0
"41733",1979,98,0,0,48.7239759805173,1.420208904928,74.122860058533,0,0,0,0,8.62769517708234,0,13.607339939957,0,0,0.0188051485151424,0,0,0,24.8404490698838,0,0
"41734",1979,99,0,0,40.204134828221,1.34122244925889,77.1481690978616,0,0,0,0,6.78410828535781,0,14.1307168873341,0,0,0.02029107827045,0,0,0,21.6169738131527,0,0
"41735",1979,100,0,0,32.5552471723241,1.26600094472539,80.0612581290941,0,0,0,0,5.11540710668226,0,14.6044454286359,0,0,0.0218080736925288,0,0,0,18.6992827704989,0,0
"41736",1979,101,0,0,25.858998900332,1.19516367703828,82.8443404959491,0,0,0,0,3.64345235518679,0,15.022319513103,0,0,0.0233531576606237,0,0,0,16.125598968682,0,0
"41737",1979,102,0,0,20.1970758997502,1.12932993190837,85.4796295421456,0,0,0,0,2.39010474500254,0,15.378133089976,0,0,0.0249233530539794,0,0,0,13.9341454344616,0,0
"41738",1979,103,0,0,15.6511640580843,1.06911899504644,87.9493386114023,0,0,0,0,1.37722499026061,0,15.6656801084954,0,0,0.0265156827518409,0,0,0,12.1631451945975,0,0
"41739",1979,104,0,0,12.3029492628399,1.0151501521633,90.2356810474381,0,0,0,0,0.626673805092132,0,15.8787545179019,0,0,0.0281271696334528,0,0,0,10.8508212758493,0,0
"41740",1979,105,0,0,10.2341174015224,0.968042688969739,92.3208701939718,0,0,0,0,0.160311903628212,0,16.011150267436,0,0,0.0297548365780601,0,0,0,10.0353967049766,0,0
"41741",1979,106,0,0,9.52635436163763,0.928415891176548,94.1871193947222,0,0,0,0,0,0,16.0566613063384,0,0,0.0313957064649074,0,0,0,9.75509450873911,0,0
"41742",1979,107,0,0,10.5814243093132,0.892670357170457,95.8701478509345,0,0,0,0,0.346885467465697,0.00935190108009248,16.0197083456249,0,0.00901186746023713,0.0333085214992867,0.00250407888629719,0,0,9.78021996536454,0,0
"41743",1979,108,0,0,13.6631382318543,0.856850178258617,97.42466929689,0,0,0,0,1.35704644415152,0.0365854591704717,15.9120980754152,0,0.0352552177565321,0.0357282598721083,0.00979617674199781,0,0,9.85541641892186,0,0
"41744",1979,109,0,0,18.6462522485325,0.821039879532466,98.8613888758623,0,0,0,0,2.98473979149056,0.0804674565462902,15.7387034136057,0,0.0775416727622601,0.0386162984410452,0.0215460853623154,0,0,9.98041399493266,0,0
"41745",1979,110,0,0,25.4055224786196,0.785323986083442,100.191011731124,0,0,0,0,5.18422237091591,0.139764675482701,15.5043972780926,0,0.134682854350797,0.0419340140637699,0.0374235965424636,0,0,10.1549428189185,0,0
"41746",1979,111,0,0,33.8157050413871,0.749787023002981,101.42424300595,0,0,0,0,7.90975104386068,0.213243898254856,15.2140525867722,0,0.205490384395517,0.0456427835979552,0.0570985020776558,0,0,10.3787330164009,0,0
"41747",1979,112,0,0,43.7515560561067,0.714513515382521,102.571787843612,0,0,0,0,11.1155826717579,0.299671907137908,14.8725422575408,0,0.288775884769796,0.049703983901274,0.0802405937631057,0,0,10.6515147129016,0,0
"41748",1979,113,0,0,55.08783164205,0.679587988313497,103.644351387385,0,0,0,0,14.7559741160408,0.397815484407011,14.4847392082947,0,0.38335097734701,0.0540789918313989,0.106519663394027,0,0,10.973018033942,0,0
"41749",1979,114,0,0,67.6992879184887,0.645094966887348,104.652638780541,0,0,0,0,18.7851822381424,0.506441412337316,14.0555163569302,0,0.488027284000534,0.0587291842460027,0.135605502765633,0,0,11.3429731050437,0,0
"41750",1979,115,0,0,81.4606810046943,0.611118976195509,105.607355166354,0,0,0,0,23.1574638994957,0.624316473203976,13.5897466213435,0,0.601616426603742,0.0636159380027582,0.167167903673137,0,0,11.7611100517284,0,0
"41751",1979,116,0,0,96.2467670199386,0.577744541329419,106.519205688097,0,0,0,0,27.827075961534,0.750207449282144,13.0923029194309,0,0.722930027030012,0.0687006299593382,0.200876657911753,0,0,12.2271589995175,0,0
"41752",1979,117,0,0,111.932302083493,0.545056187380513,107.398895489043,0,0,0,0,32.7482752856902,0.882881122846972,12.5680581690888,0,0.850779707152716,0.0739446369734153,0.236401557276694,0,0,12.7408500739327,0,0
"41753",1979,118,0,0,128.39204231463,0.51313843944023,108.257129712467,0,0,0,0,37.8753187333974,1.02110427617361,12.0218852882134,0,0.983977088845232,0.0793093359026624,0.273412393563175,0,0,13.3019134004955,0,0
"41754",1979,119,0,0,145.500743832619,0.482075822600006,109.104613501641,0,0,0,0,43.1624631660889,1.16364369153722,11.4586571947009,0,1.12133379398093,0.0847561036047521,0.311578958566408,0,0,13.9100791047275,0,0
"41755",1979,120,0,0,163.133162756735,0.451952861951277,109.952051999838,0,0,0,0,48.5639654451976,1.30926615121295,10.8832468064478,0,1.2616614444332,0.0902463169373574,0.350571044081607,0,0,14.5650773121503,0,0
"41756",1979,121,0,0,181.164055206246,0.422854082585482,110.810150350333,0,0,0,0,54.0340824321567,1.45673843747594,10.3005270413502,0,1.4037716620754,0.0957413527581508,0.390058441903986,0,0,15.2666381482854,0,0
"41757",1979,122,0,0,199.468177300427,0.394864009594056,111.689613696398,0,0,0,0,59.5270709883992,1.60482733260136,9.71537081730451,0,1.54647606878091,0.101202587924805,0.429710943828758,0,0,16.0144917386544,0,0
"41758",1979,123,0,0,217.920285158547,0.368067168068437,112.601147181306,0,0,0,0,64.9971879753583,1.75229961886436,9.13265105220694,0,1.68858628642311,0.106591399294993,0.469198341651137,0,0,16.808368208779,0,0
"41759",1979,124,0,0,236.395134899879,0.342548083100062,113.555455948332,0,0,0,0,70.398690254467,1.89792207854009,8.55724066395381,0,1.82891393687538,0.111869163726388,0.508190427166336,0,0,17.6479976841805,0,0
"41760",1979,125,0,0,254.767482643695,0.318391279780368,114.563245140748,0,0,0,0,75.6858346871584,2.04046149390369,7.99401257044138,0,1.96627064201108,0.116997258076662,0.546356992169569,0,0,18.5331102903808,0,0
"41761",1979,126,0,0,272.912084509265,0.295681283200791,115.635219901829,0,0,0,0,80.8128781348657,2.17868464723034,7.44783968956596,0,2.09946802370359,0.121937059203488,0.58336782845605,0,0,19.4634361529012,0,0
"41762",1979,127,0,0,290.703696615862,0.27450261845277,116.782085374846,0,0,0,0,85.7340774590219,2.31135832079516,6.92359493922383,0,2.2273177038263,0.126649943964538,0.618892727820991,0,0,20.4387053972634,0,0
"41763",1979,128,0,0,308.017075082757,0.25493981062774,118.014546703074,0,0,0,0,90.4036895210602,2.43724929687333,6.42615123731127,0,2.34863130425257,0.131097289217486,0.652601482059607,0,0,21.4586481489889,0,0
"41764",1979,129,0,0,324.726976029223,0.237077384817138,119.343309029786,0,0,0,0,94.7759711824135,2.55512435773999,5.96038150172457,0,2.46222044685578,0.135240471820005,0.684163882967111,0,0,22.5229945335994,0,0
"41765",1979,130,0,0,340.708155574529,0.220999866112402,120.779077498256,0,0,0,0,98.8051793045151,2.6637502856703,5.53115865036002,0,2.5668967535093,0.139040868629766,0.713249722338717,0,0,23.6314746766164,0,0
"41766",1979,131,0,0,355.835369837949,0.206791779604969,122.332557251756,0,0,0,0,102.445570748798,2.7618938629394,5.1433556011139,0,2.66147184608652,0.142459856504443,0.739528791969638,0,0,24.7838187035615,0,0
"41767",1979,132,0,0,369.983374938754,0.194537650386276,124.01445343356,0,0,0,0,105.651402376695,2.84832187182245,4.80184527188251,0,2.74475734646079,0.145458812301709,0.762670883655088,0,0,25.9797567399562,0,0
"41768",1979,133,0,0,383.026926996215,0.184322003547758,125.835471186941,0,0,0,0,108.37693104964,2.92180109459461,4.51150058056212,0,2.81556487650551,0.147999112879236,0.782345789190281,0,0,27.2190189113221,0,0
"41769",1979,134,0,0,394.840782129604,0.176229364180855,127.806315655173,0,0,0,0,110.576413629065,2.98109831353102,4.27719444504902,0,2.87270605809405,0.150042135094696,0.798223300370429,0,0,28.5013353431808,0,0
"41770",1979,135,0,0,405.299696458193,0.170344257377002,129.93769198153,0,0,0,0,112.204106976404,3.02498031090684,4.1037997832395,0,2.91499251309978,0.151549255805764,0.809973208990746,0,0,29.8264361610538,0,0
"41771",1979,136,0,0,414.278426101253,0.166751208227636,132.240305309284,0,0,0,0,113.21426795309,3.05221386899722,3.99618951302984,0,2.94123586339607,0.152481851870112,0.817265306846447,0,0,31.1940514904628,0,0
"41772",1979,137,0,0,421.651727178056,0.165534741824195,134.724860781709,0,0,0,0,113.561153420556,3.06156577007731,3.95923655231634,0,2.95024773085631,0.152801300145411,0.819769385732744,0,0,32.6039114569293,0,0
"41773",1979,138,2.27074397385261,0,428.177193831968,0.167637648901969,143.72188420124,0,0.0420078224512914,0,0,113.269762750705,3.05991150596227,3.96672847893477,0.581646772402496,2.94216177896902,0.152419849361591,0.817097544771837,0,0.12785122487739,35.9722881306143,0.0272901428639146,0.0420078224512914
"41774",1979,139,8.91642000175272,0,434.686330508566,0.173792744113641,164.967408843664,0,0.164212396855048,0,0,112.420759026534,3.05503452985882,3.98852317455203,2.27371011030066,2.91861266537247,0.151308238478902,0.809324916521927,0,0.50985112991987,43.037330538698,0.106679649377121,0.164212396855048
"41775",1979,140,19.6871942432138,0,441.164758780435,0.183769588426741,197.580401062285,0,0.360885383786094,0,0,111.051894676115,3.04706356612942,4.02359901281105,4.99687454473053,2.88066350316468,0.149515579700503,0.796815842932227,0,1.14366906074291,53.5315842422309,0.234447136421812,0.360885383786095
"41776",1979,141,34.3332328577493,0,447.598100220161,0.197337742808797,240.679827210407,0,0.626298443819253,0,0,109.200922127523,3.03612733913654,4.07093436735478,8.67182460672812,2.82937740544365,0.147090985229554,0.779934665951953,0,2.02697436296197,67.1875948022636,0.406871220880181,0.626298443819254
"41777",1979,142,52.6047020048727,0,453.971976400329,0.214266768227337,293.384653641332,0,0.954723237529349,0,0,106.905593808829,3.02235457324266,4.12950761182616,13.2192448273294,2.76581748530739,0.144083567269213,0.759045727530318,0,3.15743638219251,83.7379077798464,0.620230519634422,0.954723237529351
"41778",1979,143,74.2517678440974,0,460.272008893525,0.23432622564989,354.813846708363,0,1.34043142549121,0,0,104.203662148107,3.00587399281026,4.19829711986813,18.5598197375705,2.69104685585389,0.140542438022639,0.734513369616539,0,4.53272446405001,102.91506873603,0.870803649566729,1.34043142549121
"41779",1979,144,99.0245965349369,0,466.483819272335,0.257285676043984,424.086372764805,0,1.77769466827965,0,0,101.13287957343,2.9868143222018,4.27628126512363,24.6142338684874,2.60612863018117,0.136516709692991,0.706701934159828,0,6.15050795414993,124.451623231864,1.15486922755929,1.77769466827965
"41780",1979,145,126.673354236905,0,472.593029109345,0.282914680377147,500.321198163959,0,2.2607846264695,0,0,97.7309985128704,2.96530428577975,4.3624384212356,31.3031717511161,2.51212592138723,0.132055494483427,0.6759757631094,0,8.00845619810774,148.080116828401,1.46870587049431,2.2607846264695
"41781",1979,146,156.948207109514,0,478.58525997714,0.310982799616909,582.637289259129,0,2.78397296063558,0,0,94.0357713945019,2.9414726079066,4.45574696184698,38.5473179164927,2.41010184257008,0.127207904597106,0.642699198414471,0,10.1042385415389,173.533095086689,1.80859219525397,2.78397296063559
"41782",1979,147,189.599321312279,0,484.446133448307,0.341259594730796,670.153612403618,0,3.34153133135272,0,0,90.0849506463972,2.91544801294481,4.55518526060072,46.2673568956531,2.30111950682772,0.122023052237188,0.607236582024255,0,12.4355243300589,200.54310356778,2.17080681872048,3.34153133135273
"41783",1979,148,224.376863004712,0,490.16127109543,0.373514626686338,761.98913395073,0,3.92773139919574,0,0,85.9162886966293,2.88735922525685,4.65973169113975,54.3839732196333,2.18624202725816,0.11655004960683,0.569952255887965,0,14.9999829092831,228.842687832724,2.55162835777601,3.92773139919575
"41784",1979,149,261.030998346327,0,495.716294491097,0.407517456451063,857.262820253767,0,4.53684482473947,0,0,81.5675379732711,2.8573349692052,4.76836462710702,62.8178514194695,2.06653251695939,0.110838008909193,0.531210561954818,0,17.7952836248271,258.164393442571,2.94733542930277,4.53684482473948
"41785",1979,150,299.311893496638,0,501.096825207891,0.4430376449925,955.093637666033,0,5.16314326855872,0,0,77.0764509043957,2.82550396915233,4.88006244214546,71.4896760261977,1.94305408902944,0.104936042347433,0.491375842174027,0,20.8190958223064,288.240765958373,3.35420665018295,5.16314326855873
"41786",1979,151,338.969714615158,0,506.2884848184,0.479844753278176,1054.60055254083,0,5.80089839122832,0,0,72.4807799180761,2.79199494946072,4.99380350989802,80.3201315708537,1.8168698565663,0.0988932621247114,0.450812438494807,0,24.0690888473363,318.804350941179,3.76852063729875,5.80089839122834
"41787",1979,152,379.7546278614,0,511.276894895208,0.51770834227562,1154.90253123146,0,6.4443818533231,0,0,67.8182774423853,2.75693663449283,5.10856620400764,89.2299025844738,1.68904293266797,0.0927587804441857,0.409884692866372,0,27.5429320455323,349.58769395204,4.18655600753235,6.44438185332312
"41788",1979,153,421.416799394878,0,516.047677010902,0.556397972952361,1255.11854009124,0,7.08786531541789,0,0,63.1266959053963,2.72045774861115,5.22332889811726,98.1396735980938,1.56063643043247,0.0865817095090148,0.368956947237937,0,31.23829476251,380.323340552006,4.60459137776595,7.0878653154179
"41789",1979,154,463.706395375105,0,520.586452738068,0.595683206275927,1354.36754547345,0,7.72562043808749,0,0,58.443787735182,2.68268701617813,5.33706996586982,106.97012914275,1.4327134629578,0.0804111615223578,0.328393543558717,0,35.1528463438847,410.743836302129,5.01890536488174,7.72562043808751
"41790",1979,155,506.373581961595,0,524.878843649291,0.635333603213846,1451.76851373141,0,8.35191888190674,0,0,53.8073053598154,2.64375316155626,5.44876778090826,115.641953749478,1.30633714334197,0.0742962486873733,0.288558823777926,0,39.284256135272,440.581726763458,5.42577658576192,8.35191888190676
"41791",1979,156,549.168525313862,0,528.910471317156,0.675118724733647,1546.44041121841,0,8.96103230745047,0,0,49.2550012073697,2.60378490910801,5.55740071687553,124.075831949314,1.18257058468297,0.0682860832072202,0.249817129844778,0,43.6301934822873,469.569557497043,5.82148365728868,8.96103230745049
"41792",1979,157,591.841391591418,0,532.66695731425,0.714808131802858,1637.50220428777,0,9.54723237529349,0,0,44.8246277059176,2.56291098319585,5.66194714741456,132.192448273294,1.06247690007882,0.0624297772850573,0.212532803708489,0,48.1883277305461,497.439874063937,6.20230519634422,9.54723237529351
"41793",1979,158,634.142346953777,0,536.133923213158,0.754171385389008,1724.07285929278,0,10.1047907460106,0,0,40.5539372835323,2.52126010818225,5.7613854461683,139.912487252455,0.947119202627512,0.0567764431240434,0.177070187318273,0,52.9563282256638,523.925222025188,6.56451981981072,10.1047907460106
"41794",1979,159,675.821557560452,0,539.296990586466,0.792978046459624,1805.27134258675,0,10.6279790801767,0,0,36.4806823682868,2.47896100842969,5.85469398677968,147.156633417831,0.837560605427065,0.0513751929273373,0.143793622623343,0,57.931864313256,548.758146941847,6.90440614457038,10.6279790801767
"41795",1979,160,716.629189570958,0,542.14178100676,0.830997675982236,1880.21662052297,0,11.1110690383666,0,0,32.6426153882539,2.43614240830064,5.94085114289165,153.84557130046,0.734864221575478,0.0462751388980978,0.113067451572916,0,63.112605338938,571.671194374966,7.2182427875054,11.1110690383666
"41796",1979,161,756.315409144808,0,544.653916046626,0.867999834924372,1948.02765945477,0,11.548332281155,0,0,29.0774887715068,2.39293303215757,6.01883528814715,159.899985431377,0.640093164170756,0.0415253932394838,0.0852560161162054,0,68.4962206483253,592.396909885593,7.50230836549797,11.548332281155
"41797",1979,162,794.630382441514,0,546.819017278649,0.903754084253559,2007.82342573542,0,11.9340404691169,0,0,25.8230549461184,2.34946160436296,6.08762479618912,165.240560341618,0.554310546310906,0.0371750681546539,0.0607236582024254,0,74.0803795870335,610.667839034781,7.75288149543027,11.9340404691169
"41798",1979,163,831.324275620591,0,548.622706275415,0.938029984937327,2058.72288571825,0,12.262465262827,0,0,22.9170663401618,2.30585684927927,6.1461980406605,169.787980562219,0.478579481093933,0.0332732758467671,0.039834719780791,0,79.8627515006779,626.216527383578,7.96624079418452,12.262465262827
"41799",1979,164,866.147254841551,0,550.050604609509,0.970597097943203,2099.84500575656,0,12.5278783228601,0,0,20.3972753817098,2.26224749126899,6.19353339520423,173.462930624217,0.413963081617841,0.0298691285189822,0.0229535428005168,0,85.8410057348741,638.775520493037,8.13866487864288,12.5278783228601
"41800",1979,165,898.849486263909,0,551.088333853518,1.00122498423872,2130.30875220363,0,12.7245513097912,0,0,18.3014344988355,2.21876225469458,6.22860923346325,176.186095058647,0.361524460980637,0.0270117383744579,0.0104444692108171,0,92.0128116352374,648.077363924207,8.26643236568757,12.7245513097912
"41801",1979,166,929.181136047178,0,551.721515580027,1.0296832047914,2149.23309141279,0,12.8467558841949,0,0,16.667296119612,2.17552986391851,6.25040392908051,177.878158396545,0.322326732280325,0.024750217616353,0.00267184096090678,0,98.3758385473835,653.854603238138,8.34582187220078,12.8467558841949
"41802",1979,167,956.892370350871,0,551.935771361622,1.05574132056877,2155.73698973733,0,12.8887637066462,0,0,15.5326126721121,2.13267904330327,6.25789585569894,178.459805168948,0.297433008614912,0.0231336784478265,0,0,104.927755816928,655.839783995882,8.3731120150647,12.8887637066462
"41803",1979,168,983.213444274437,0,551.326708344725,1.07983113915427,2154.57385002693,0,12.84939351104,0,0,14.6681689790577,2.08625255047686,6.23878040059946,177.914679383631,0.280240787071468,0.0218664376409838,0,0.00335656154847874,117.45832769765,655.064948261586,8.34753539147466,12.84939351104
"41804",1979,169,1009.52371756364,0,549.54345195987,1.10261505723921,2151.15264304847,0,12.7347440403186,0,0,13.8201215661524,2.03260264449029,6.18311451487021,176.327225173642,0.263446322676921,0.0206209646416946,0,0.0131311638599828,141.262991543261,652.808558485888,8.27305401508608,12.7347440403186
"41805",1979,170,1035.79701334747,0,546.651901205816,1.12420851945297,2145.57568703107,0,12.5500069686279,0,0,12.9892804159419,1.97232230184051,6.09341891786495,173.769327257925,0.247060865439054,0.0193986006637635,0,0.0288811834336138,175.597926349276,649.172790809575,8.15304062747127,12.5500069686279
"41806",1979,171,1062.0071547549,0,542.717955081318,1.14472697042492,2137.94530020385,0,12.3003739701137,0,0,12.1764555109719,1.90600449902447,5.97221432893748,170.312870355421,0.231095665365654,0.0182006869209952,0,0.0501639967684734,219.719311111207,644.259821373433,7.99086797020256,12.3003739701138
"41807",1979,172,1088.12796491493,0,537.807512585134,1.16428585478443,2128.36380079594,0,11.991036718922,0,0,11.3824568337884,1.83424221253913,5.82202146744157,166.029739185074,0.215561972464507,0.0170285646271942,0,0.0765369803636635,272.883324824568,638.171826318249,7.78990878485224,11.9910367189221
"41808",1979,173,1114.13326695654,0,531.986472716021,1.18300061716087,2116.93350703646,0,11.6271868891986,0,0,10.6080943669371,1.75762841888142,5.64536105273099,160.991818465827,0.200471036743396,0.0158835749961654,0,0.107557510718286,334.346146484873,631.010981784808,7.55353581299264,11.6271868891987
"41809",1979,174,1139.99688400872,0,525.320734472735,1.20098670218361,2103.75673715452,0,11.2140161550894,0,0,9.85417809296367,1.6767560945483,5.44475380415953,155.270992916623,0.185834108210109,0.0147670592417133,0,0.142782964331442,403.363955087634,622.879463913897,7.28512179619606,11.2140161550895
"41810",1979,175,1165.69263920046,0,517.876196854034,1.21835955448202,2088.93580937926,0,10.7567161907403,0,0,9.12151799441397,1.59221821603672,5.22272044108096,148.939147256404,0.17166243687243,0.0136803585776426,0,0.181770717702233,479.192929628366,613.879448846303,6.98803947603483,10.7567161907403
"41811",1979,176,1191.19435566073,0,509.718758858675,1.23523461868547,2072.5730419398,0,10.2604786702971,0,0,8.41092405383377,1.50460775984363,4.98178168284905,142.068166204114,0.157967272738144,0.012624814217758,0,0.224078147329762,561.089249102581,604.113112722811,6.66566159408124,10.2604786702971
"41812",1979,177,1216.47585651853,0,500.914319485414,1.25172733942334,2054.77075306525,0,9.73049526790574,0,0,7.72320625376883,1.41451770246598,4.72445824881759,134.729934478695,0.144759865815037,0.0116017673758641,0,0.269262629713129,648.309092505794,593.682631684209,6.32136089190763,9.73049526790576
"41813",1979,178,1241.51096490285,0,491.528777733009,1.26795316132499,2035.63126098474,0,9.17195765771205,0,0,7.05917457676493,1.32254102040072,4.45327085834036,126.99633679909,0.132051466110895,0.0106125592657656,0,0.316881541351438,740.108638833517,582.690181871281,5.95851011108629,9.17195765771207
"41814",1979,179,1266.27350394266,0,481.628032600216,1.2840275290198,2015.25688392739,0,8.59005751386192,0,0,6.41963900536784,1.2292706901448,4.17074023077112,118.939257884242,0.119853323633502,0.00965853110126708,0,0.366492258743788,835.744067081265,571.237939424816,5.58048199318954,8.59005751386194
"41815",1979,180,1290.73729676696,0,471.277983085793,1.30006588713713,1993.74994012232,0,7.98998651050123,0,0,5.80540952212335,1.13529968819517,3.87938708546366,110.630582453094,0.108176688390644,0.0087410240961733,0,0.417652158389283,934.47155624455,559.428080485598,5.1906492797897,7.98998651050125
"41816",1979,181,1314.87616650472,0,460.544528188496,1.31618368030636,1971.21274779865,0,7.37693632177586,0,0,5.21729610957723,1.04122099104878,3.58173214177176,102.142195224589,0.0970328103901065,0.00786137946428887,0,0.469918616787023,1035.54728531889,547.362781194414,4.79238471245907,7.37693632177587
"41817",1979,182,1338.66393628495,0,449.493566907083,1.33249635315686,1947.74762518551,0,6.75609862183167,0,0,4.65610875027525,0.94762757520257,3.2802961190492,93.5459809176692,0.0864329396396747,0.00702093841941846,0,0.522849010436111,1138.22743329979,535.144217692051,4.38906103276997,6.75609862183168
"41818",1979,183,1362.07442923662,0,438.19099824031,1.349119350318,1923.45689051202,0,6.13266508481454,0,0,4.12265742676319,0.855112417153503,2.97759973664974,84.9138242512783,0.0763883261471339,0.00622104217536672,0,0.576000715835648,1241.76817918277,522.874566119295,3.98405098229472,6.13266508481455
"41819",1979,184,1385.08146848872,0,426.702721186934,1.36616811641915,1898.44286200729,0,5.51182738487035,0,0,3.61775212158683,0.764268493398525,2.67616371392718,76.3176099443587,0.0669102199202697,0.00546303194593832,0,0.628931109484736,1345.42570196334,510.656002616932,3.58072730260563,5.51182738487036
"41820",1979,185,1407.65887717024,0,415.094634745712,1.38375809608968,1872.80785790046,0,4.89877719614498,0,0,3.14220281729193,0.675688780434584,2.37850877023528,67.8292227158535,0.0580098709668672,0.00474824894493791,0,0.681197567882476,1448.45618063701,498.590703325748,3.182462735275,4.89877719614499
"41821",1979,186,1429.78047841015,0,403.432637915401,1.40200473395896,1846.65419642065,0,4.29870619278429,0,0,2.69681949642428,0.589966254758631,2.08715562492782,59.5205472847055,0.0496985292947119,0.00407803438617016,0,0.732357467527971,1550.1157941993,486.78084438653,2.79263002187516,4.29870619278429
"41822",1979,187,1451.42009533746,0,391.782629694759,1.42102347465636,1820.08419579696,0,3.71680604893416,0,0,2.28241214152966,0.507693892867616,1.80462499735858,51.4634683698576,0.0419874449115891,0.00345372948343972,0,0.781968184920321,1649.66072164573,475.328601940064,2.41460190397841,3.71680604893417
"41823",1979,188,1472.55155108114,0,380.210509082541,1.44092976281126,1793.20017425854,0,3.15826843874047,0,0,1.89979073515383,0.429464671258489,1.53343760688135,43.7298706902526,0.0348878678252842,0.00287667545055124,0,0.829587096558629,1746.3471419718,464.336152127137,2.05175112315707,3.15826843874047
"41824",1979,189,1493.14866877019,0,368.782175077506,1.46183904305302,1766.10445003449,0,2.62828503634909,0,0,1.54976525984257,0.355871566428199,1.27611417284989,36.3916389648335,0.0284110480435826,0.00234821350130941,0,0.874771578941997,1839.43123417303,453.905671088534,1.70745042098345,2.62828503634909
"41825",1979,190,1513.18527153357,0,357.563526678409,1.48386676001101,1738.89934135395,0,2.1320475159059,0,0,1.23314569814166,0.287507554873696,1.03517541461799,29.5206579125431,0.0225682355742697,0.00186968484951886,0,0.917079008569526,1928.16917724493,444.139334965043,1.38507253902987,2.1320475159059
"41826",1979,191,1532.6351825003,0,346.620462884009,1.50712835831461,1711.68716644603,0,1.67474755155676,0,0,0.950742032596878,0.224965613091931,0.813142051539412,23.1888122523244,0.0173706804251307,0.00144243070898426,0,0.956066761940317,2011.81715018301,435.139319897448,1.08799021886863,1.67474755155676
"41827",1979,192,1551.47222479934,0,336.018882693061,1.53173928259319,1684.57024353986,0,1.26157681744756,0,0,0.703364245753992,0.168838717579852,0.612534802967947,17.4679867031201,0.012829632603951,0.00106779229351027,0,0.991292215553473,2089.6313319828,427.007802026538,0.819576202072058,1.26157681744756
"41828",1979,193,1569.67022155969,0,325.824685104323,1.55781497747612,1657.65089086455,0,0.897726987724175,0,0,0.491822320158782,0.119719844834411,0.43587438825737,12.4300659838732,0.00895634211851609,0.000747110816901542,0,1.0223127459081,2160.8679016398,419.846957493097,0.583203230212455,0.897726987724175
"41829",1979,194,1587.20299591033,0,316.103769116552,1.58547088759276,1631.03142664923,0,0.58838973653247,0,0,0.316926238357022,0.0782019713525561,0.285681526761459,8.14693481352649,0.00576205897661125,0.000481727492962745,0,1.04868572950329,2224.78303814952,413.758962437913,0.382244044862141,0.58838973653247
"41830",1979,195,1604.04437098025,0,306.922033728504,1.6148224575725,1604.81416912302,0,0.338756738018326,0,0,0.179485982894489,0.0448780736312377,0.164476937833987,4.69047791102292,0.00325803318602191,0.000272983535498528,0,1.06996854283815,2280.63292050749,408.845993001771,0.220071387593423,0.338756738018324
"41831",1979,196,1620.16816989843,0,298.345377938938,1.64598513204469,1579.10143651505,0,0.154019666327619,0,0,0.0803115363169571,0.0203411281674057,0.0747813408287357,2.13257999530543,0.00145551475453326,0.000122220158313563,0,1.08571856241178,2327.6737277092,405.210225325458,0.100057999978619,0.154019666327613
"41832",1979,197,1635.54821579386,0,290.439700746609,1.67907435563872,1553.99554705443,0,0.0393701956062191,0,0,0.0202128811702025,0.00518411145801023,0.0191154550994819,0.54512578531677,0.000365753689930859,0.0000307785752124978,0,1.09549316472328,2365.16163875018,402.95383554976,0.025576623590041,0.0393701956062156
"41833",1979,198,1650.15833179553,0,283.270901150274,1.71420557298395,1529.59881897029,0,0,0,0,0,0,0,0,0,0,0,1.09884972627176,2392.35283262595,402.178999815464,0,0
"41834",1979,199,1664.46463189998,0.0323276509098623,276.468514303086,1.755120931722,1504.92874086762,0,0,0,0.0113272033298787,0.262551630635228,0.000931143318110332,0.0148035828255996,0.0920940722970617,0,0.0000386855411716756,0,1.09526829012687,2413.97475287889,404.430600024791,0.049116838558433,0
"41835",1979,200,1678.9209708877,0.127971172095003,269.626977425242,1.80521521828249,1479.00058490081,0,0,0,0.0449974571025009,1.03011037493477,0.00368005488513704,0.0580324609347426,0.360004100797605,0,0.000152774349739718,0,1.0848495667963,2435.23342612617,410.980709724649,0.192002187092056,0
"41836",1979,201,1693.48278306364,0.284921416238753,262.75954261607,1.86408283547676,1451.91334462308,0,0,0,0.100543726992346,2.27253201148944,0.0081799571201237,0.127913828775945,0.791171802915666,0,0.000339314703283651,0,1.06808193393615,2456.10290597543,421.52229252286,0.421958294888356,0
"41837",1979,202,1708.10550273271,0.501169236024442,255.879461974896,1.93131818611614,1423.76601358766,0,0,0,0.177498978673893,3.95967231889001,0.0143640724421139,0.222674880797723,1.37303889606528,0,0.000595354879382998,0,1.04545376920255,2476.55724603432,435.748312027241,0.732287411234819,0
"41838",1979,203,1722.74456419985,0.774705484135402,248.999987601047,2.00651567301199,1394.65758534775,0,0,0,0.275396177821622,6.06138707572729,0.0221656232701511,0.340542811448592,2.09304709766049,0,0.000917943155617282,0,1.01745345025163,2496.57049991049,453.351731845611,1.11629178541893,0
"41839",1979,204,1737.35540176998,1.10352101325496,242.134371593851,2.08926969897564,1364.68705345659,0,0,0,0.393768290110012,8.54753206059208,0.031517832023279,0.479744815177069,2.93863812511533,0,0.00130412780956603,0,0.984569354739496,2516.11672121158,474.025515585791,1.56727366672818,0
"41840",1979,205,1751.89344974805,1.48560667606645,235.295866052634,2.17917466681843,1333.95341146739,0,0,0,0.532148281213543,11.3879630520752,0.0423539211205411,0.638508086431669,3.89725369584384,0,0.00175095711880876,0,0.947289860322276,2535.16996354525,497.462626855599,2.07853530445005,0
"41841",1979,206,1766.31414243897,1.91895332525321,228.497723076723,2.27582497935171,1302.55565293337,0,0,0,0.690069116806692,14.5525358287673,0.054607112980981,0.815059819660909,4.95633552726005,0,0.00225547936092499,0,0.90610334465609,2553.70428051912,523.356029262853,2.64337894787203,0
"41842",1979,207,1780.57291414768,2.40155181349856,221.753194765445,2.37881503938682,1270.59277140775,0,0,0,0.867063762563941,18.0111061692594,0.0682106300236423,1.00762720931331,6.103325336778,0,0.00281474281349426,0,0.861498185397059,2571.69372574086,551.398686415374,3.2551068462816,0
"41843",1979,208,1794.6251991791,2.93139299348583,215.075533218127,2.48773924973509,1238.16376044375,0,0,0,1.06266518415977,21.7335298521422,0.0830976946675685,1.21443744983737,7.32566484181173,0,0.00342579575409608,0,0.813962760201303,2589.11235281812,581.28356192098,3.90702124896626,0
"41844",1979,209,1808.42643183817,3.50646771789835,208.477990534096,2.60219201320788,1205.36761359459,0,0,0,1.27640634726865,25.6896626560064,0.0992015293318032,1.43371773568163,8.61079575977527,0,0.00408568646030999,0,0.763985446724943,2605.93421535852,612.703619387491,4.59242440521348,0
"41845",1979,210,1821.93204642982,4.12476683941946,201.973818812679,2.72176773261652,1172.30332441349,0,0,0,1.50782021756508,29.8493603594429,0.11645535643539,1.66369526129459,9.94615980808266,0,0.00479146320971549,0,0.7120546226241,2622.13336696973,645.351822422725,5.30461856431076,0
"41846",1979,211,1835.09747725898,4.78428121073249,195.576270153203,2.84606081077236,1139.06988645367,0,0,0,1.75643976072351,34.1824787410425,0.134792398397372,1.90259722112477,11.3191987041479,0,0.00554017427989212,0,0.658658665554894,2637.68386125939,678.921134634501,6.03690597554558,0
"41847",1979,212,1847.87815863057,5.48300168452076,189.298596654995,2.97466565048674,1105.76629326836,0,0,0,2.02179794241845,38.658873579396,0.154145877636794,2.14865080962068,12.7173541653852,0,0.00632886794841939,0,0.604285953173447,2652.55975183514,713.10451963064,6.78258888820543,0
"41848",1979,213,1860.22952484953,6.21891911346761,183.154050417381,3.10717665457099,1072.49153841076,0,0,0,2.30342772832436,43.2484006530942,0.174449016572698,2.40008322123085,14.1280679092083,0,0.00715459249287684,0,0.549424863135879,2666.73509230464,747.594941018959,7.53496955157778,0
"41849",1979,214,1872.10701022078,6.99002435025637,177.155883539689,3.24318822583647,1039.3446154341,0,0,0,2.60086208411572,47.9209157407278,0.195635037624129,2.65512165040378,15.5387816530315,0,0.00801439619084399,0,0.494563773098311,2680.18393627553,782.085362407279,8.28735021495014,0
"41850",1979,215,1883.46604904926,7.79430824757036,171.317348121246,3.38229476709451,1006.4245178916,0,0,0,2.91363397546702,52.6462746208876,0.217637163210129,2.911993291588,16.9369371142687,0,0.00890532731990035,0,0.440191060716864,2692.88033735545,816.268747403417,9.03303312760999,0
"41851",1979,216,1894.2620756399,8.62976165809292,165.651696261378,3.52409068115646,973.830239336477,0,0,0,3.24127636805273,57.3943330721645,0.240388615749743,3.16892533923202,18.309976010334,0,0.00982443415762546,0,0.386795103647659,2704.79834915206,849.838059615194,9.76532053884481,0
"41852",1979,217,1904.45052429762,9.49437543450738,160.172180059413,3.66817037083365,941.660773321955,0,0,0,3.58332222754733,62.1349468731493,0.263822617662015,3.42414498778436,19.6453400586414,0,0.0107687649815988,0,0.334864279546816,2715.91202527299,882.486262650428,10.4775146979421,0
"41853",1979,218,1913.98682932735,10.3861404294971,154.892051614677,3.81412823893743,910.015113401252,0,0,0,3.9393045196253,66.8379718024327,0.287872391365986,3.67587943169353,20.9304709766049,0,0.0117353680694,0,0.284886966070456,2726.1954193259,913.906320116938,11.1629178541893,0
"41854",1979,219,1922.82642503404,11.3030474957453,149.824563026497,3.96155868827915,878.992253127588,0,0,0,4.30875620996113,71.4732636386056,0.312471159280702,3.92235586540805,22.1528104816387,0,0.0127212916986085,0,0.2373515408747,2735.62258491843,943.791195622545,11.814832256874,0
"41855",1979,220,1930.92474572259,12.2430874859355,144.982966394201,4.11005612167013,848.691186054182,0,0,0,4.69121026422928,76.0106781602587,0.337552143825206,4.16180148337643,23.2998002911566,0,0.0137235841468038,0,0.192746381615668,2744.16757565823,971.833852775065,12.4265601552835,0
"41856",1979,221,1938.23722569796,13.2042512527508,140.380513817115,4.25921494192174,819.210905734254,0,0,0,5.08619964810425,80.4200711459829,0.363048567418541,4.39244348004719,24.3588821225728,0,0.0147392936915654,0,0.151559865949482,2751.80444515295,997.72725518232,12.9914037987055,0
"41857",1979,222,1944.71929926505,14.1845296488748,136.030457394567,4.4086295518453,790.650405721025,0,0,0,5.4932573272605,84.6712983743688,0.388893652479751,4.61250904986885,25.3174976933013,0,0.015765468610473,0,0.114280371532263,2758.50724701023,1021.16436645213,13.5026654364274,0
"41858",1979,223,1950.32640072882,15.1819135269906,131.946049225882,4.55789435425215,763.108679567713,0,0,0,5.91191626737253,88.7342156240074,0.415020621427879,4.82022538728992,26.1630887207562,0,0.016799157181106,0,0.0813962760201299,2764.25003483771,1041.83815019231,13.9536473177366,0
"41859",1979,224,1955.01396439417,16.1943937397816,128.140541410389,4.70660375195365,736.684720827539,0,0,0,6.3417094341148,92.5786786734895,0.441362696681969,5.01381968675892,26.8830969223514,0,0.0178374076810438,0,0.0533959570692051,2769.00686224306,1059.44157001068,14.3376516919207,0
"41860",1979,225,1958.73742456605,17.2199611399311,124.627186047413,4.85435214776114,711.477523053723,0,0,0,6.7821697931618,96.1745433014057,0.467853100661065,5.19151914272436,27.464964015501,0,0.0188772683878662,0,0.0307677923356089,2772.7517828339,1073.66758951506,14.6479808082672,0
"41861",1979,226,1961.45221554939,18.2566065801226,121.419235236283,5.00073394448594,687.586079799484,0,0,0,7.232830310188,99.491665286347,0.49442505578421,5.35155094963477,27.896131717619,0,0.0199157875791525,0,0.0140001594754617,2775.45885021789,1084.20917231327,14.8779369160635,0
"41862",1979,227,1963.11377164911,19.3023209130392,118.529941076324,5.14534354493942,665.109384618042,0,0,0,7.69322395086789,102.499900406904,0.521011784470448,5.49214230193865,28.1640417461196,0,0.0209500135324823,0,0.00358143614488515,2777.10211800268,1090.75928201313,15.0208222645971,0
"41863",1979,228,1963.67752717014,20.3550949913644,115.972555666864,5.2877753519329,644.146431062617,0,0,0,8.16288368087595,105.169104441668,0.547546509138822,5.61152039408453,28.2561358184167,0,0.0219769945254352,0,0,2777.65563979591,1093.01088222245,15.0699391031556,0
"41864",1979,229,1959.24774109272,21.5719108557435,113.593840714845,5.43647634548789,623.808878399845,0,0.0252950863767533,0,8.78701524225821,107.683042337022,0.575390769690357,5.71559099689324,28.1698242357415,0,0.0230958138610754,0.000720148701805229,0,2775.37312542316,1091.15549056123,15.0239062590621,0
"41865",1979,230,1946.33057919773,23.0954233420804,111.234378271658,5.59930493003006,603.185353112361,0,0.0989566016497163,0,9.69727711021454,110.239908991977,0.605865133752702,5.81185067582977,27.91847731916,0,0.0243975943371208,0.00282145065466654,0,2768.6740007553,1085.75183354464,14.8898545702187,0
"41866",1979,231,1925.48433599108,24.9021324959456,108.898150953309,5.77497264497697,582.340299577387,0,0.217648930032943,0,10.8728813501502,112.831205114062,0.638841365334841,5.90091281730883,27.513476815838,0,0.0258674434731313,0.00621518962975238,0,2757.78089346793,1077.04368812327,14.6738543017803,0
"41867",1979,232,1897.26730597868,26.96853836291,106.589141375802,5.96219102974619,561.338162172143,0,0.378036455740489,0,12.2930400274702,115.448431410805,0.674191228445755,5.98339080774514,26.9662044729416,0,0.0274904687886667,0.0108126493982312,0,2742.91643123667,1065.27483124775,14.3819757189022,0
"41868",1979,233,1862.23778366646,29.2711409885444,104.311332155142,6.15967162375528,540.243385273851,0,0.576783562986408,0,13.93696520758,118.083088589735,0.711786487094424,6.05989803355341,26.2880420376367,0,0.0292517778032869,0.0165251137312714,0,2724.30324173712,1050.68903986868,14.0202890867396,0
"41869",1979,234,1820.95406356032,31.7864404184194,102.068705907331,6.36612596642182,519.120413259731,0,0.810554635984755,0,15.7838689558847,120.726677358383,0.751498905289832,6.13104788114838,25.4903712570893,0,0.0311364780365517,0.0232638664000414,0,2702.16395264488,1033.53009093667,13.5948646704476,0
"41870",1979,235,1773.97444016617,34.4909366981059,99.8652452483756,6.58026559716338,498.033690507005,0,1.07601405894958,0,17.8129633377895,123.370698424276,0.793200247040959,6.19745373694474,24.5845738784653,0,0.0331296770080208,0.0309401911757097,0,2676.72119163555,1014.04176140232,13.1117727351815,0
"41871",1979,236,1721.85720798993,37.3611298731746,97.704932794279,6.80080205539752,477.047661392893,0,1.36982621609495,0,20.0034604186995,126.006652494945,0.836762276356787,6.25972898735723,23.5820316489307,0,0.0352164822372543,0.0394653718294447,0,2648.19758638475,992.467828216239,12.5770835460964,0
"41872",1979,237,1665.16066153751,40.3735199891963,95.5917511610459,7.02644688054181,456.226770294616,0,1.68865549163491,0,22.3345722640201,128.626040277917,0.882056757246299,6.31848701880056,22.4941263156514,0,0.0373820012438118,0.0487506921324149,0,2616.81576456807,969.052068329039,11.9968673683474,0
"41873",1979,238,1604.44309531482,43.5046070917417,93.5296829646805,7.25591161201382,435.635461589396,0,2.02916626978351,0,24.7855109391564,131.220362480722,0.928955453718476,6.37434121768944,21.3322396257933,0,0.0396113415472532,0.0587074358557887,0,2582.79835386112,944.038258691326,11.3771944670898,0
"41874",1979,239,1540.26280382778,46.7308912263816,91.5227108211871,7.48790778923112,415.338179654453,0,2.38802293475481,0,27.3354885095137,133.78111981089,0.9773301297823,6.42790497043859,20.1077533265225,0,0.0418896106671385,0.0692468867707345,0,2546.36798193951,917.670176253708,10.7241351074787,0
"41875",1979,240,1473.17808158229,50.0288724386867,89.57481734657,7.72114695161127,395.399368867009,0,2.76188987076287,0,29.963717040497,136.299812975949,1.02705254944675,6.47979166346274,18.832049165005,0,0.0442019161230273,0.0802803286484208,0,2507.74727647884,890.191597966791,10.0437595546693,0
"41876",1979,241,1403.74722308428,53.3750507742278,87.6899851568336,7.95434063857186,375.883473604284,0,3.14743146202173,0,32.6494085975117,138.767942683428,1.07799447672081,6.53061468317659,17.5165088884065,0,0.0465333654344796,0.091719045260016,0,2467.15886515471,861.846300781183,9.34213807381683,0
"41877",1979,242,1332.52852283965,56.7459262785756,85.8721968679821,8.18620038953044,356.854938243499,0,3.54131209274546,0,35.371775245963,141.177009640857,1.13002767561347,6.58098741599487,16.1725142438932,0,0.0488690661210551,0.103474320376689,0,2424.82537564274,832.878061647492,8.62534093007639,0
"41878",1979,243,1260.08027535432,60.117998997301,84.12543509602,8.41543774390458,338.378207161876,0,3.94019614714811,0,38.110029051256,143.518514555764,1.1830239101337,6.6315232483323,14.811446978631,0,0.0511941257023138,0.115457437769607,0,2380.96943561852,803.530657516325,7.89943838860318,0
"41879",1979,244,1186.96077513419,63.4677689759746,82.4536824569514,8.64076424111185,320.517724736634,0,4.34074800944373,0,40.843382078796,145.783958135679,1.23685494429048,6.68283556660358,13.4446888397857,0,0.0534936516978154,0.127579681209939,0,2335.81367275765,774.047865338289,7.17050071455239,0
"41880",1979,245,1113.72831668519,66.7717362601672,80.8609215667807,8.86089142056982,303.337935344996,0,4.73963206384638,0,43.5510463939881,147.96484108813,1.2913925420928,6.73553775722345,12.0836215745235,0,0.0557527516271199,0.139752334468855,0,2289.58071473575,744.673462063993,6.44459817307918,0
"41881",1979,246,1040.94119451322,70.0064008954496,79.3511350415122,9.07453082169607,286.903283364182,0,5.13351269457011,0,46.2122340622376,150.052664120648,1.34650846754964,6.79024320660661,10.7396269300101,0,0.0579565330097869,0.151886681317521,0,2242.49318922842,715.651224644044,5.72780102933874,0
"41882",1979,247,969.157703124205,73.1482629273925,77.9283054971502,9.28039398390814,271.278213171414,0,5.51905428582898,0,48.8061571489496,152.03892794076,1.40207448466998,6.84756530116779,9.4240866534117,0,0.0600901033653765,0.163894005527107,0,2194.77372391126,687.224930029049,5.02617954848625,0
"41883",1979,248,898.936137024047,76.1738224015667,76.5964155496991,9.47719244662363,256.527169143911,0,5.89292122183704,0,51.3120277195295,153.915133255995,1.4579623574628,6.90811742732169,8.14838249189412,0,0.0621385702134483,0.175685590868781,0,2146.64494645988,659.638355169616,4.34580399567687,0
"41884",1979,249,830.834790718662,79.059579363543,75.3594478151632,9.66363774926009,242.714595658895,0,6.25177788680834,0,53.7090578393823,155.672780773884,1.51404384993709,6.97251297148305,6.92389619262333,0,0.0640870410735623,0.187172721113711,0,2098.32948454988,633.135277016352,3.69274463606578,0
"41885",1979,250,765.411958713963,81.782033858892,74.2213849095467,9.8384414312351,229.904937093588,0,6.59228866495694,0,55.9764595739134,157.303371201955,1.57019072610182,7.04136532006658,5.76200950276531,0,0.0659206234652782,0.198266680033066,0,2050.04996585687,607.959472519866,3.07307173480817,0
"41886",1979,251,703.225935515863,84.3176859331846,73.1862094488539,10.0003150319662,218.16263782521,0,6.9111179404969,0,58.0934449885278,158.798405247738,1.62627474996598,7.11528785948698,4.674104169486,0,0.067624424908156,0.208878751398015,0,2002.02901805645,584.354718630763,2.4928555570592,0
"41887",1979,252,644.835015630275,86.6430356319916,72.2579040490893,10.147970090871,207.552142230981,0,7.20493009764226,0,60.0392261486308,160.14938361876,1.68216768553855,7.194893976159,3.67156193995136,0,0.0691835529217555,0.218920218979725,0,1954.48926882422,562.564792299652,1.95816636797406,0
"41888",1979,253,590.797493563112,88.7345830008836,71.4404513262571,10.2801181473671,198.137894688124,0,7.47038952060709,0,61.7930151196277,161.347807022552,1.73774129682851,7.28079705649733,2.76576456132735,0,0.0705831150256364,0.228302366549365,0,1907.6533458358,542.83347047714,1.47507443270792,0
"41889",1979,254,541.671663820285,90.5688280854314,70.7378338963616,10.3954707408719,189.984339573859,0,7.70416059360544,0,63.3340239669236,162.385176166642,1.79286734784484,7.3736104869167,1.96809378077992,0,0.0718082187393586,0.236936477878104,0,1861.74387676678,525.404530113836,1.04965001641596,0
"41890",1979,255,498.015820907709,92.1222709312057,70.1540343754071,10.4927394108032,183.155921265406,0,7.90290770085136,0,64.6414647559237,163.25299175856,1.84741760259653,7.47394765383182,1.28993134547504,0,0.0728439715824821,0.24473383673711,0,1816.98348929278,510.521748160345,0.687963384253354,0
"41891",1979,256,460.388259331296,93.3714115837775,69.6930353793979,10.5706356965784,177.717084139988,0,8.0632952265589,0,65.6945495520332,163.942754505834,1.90126382509255,7.58242194365742,0.742659002578645,0,0.0736754810745665,0.251605726897551,0,1773.59481108938,498.428901567277,0.396084801375279,0
"41892",1979,257,429.347273596958,94.2927500887173,69.3588195243384,10.6278711376151,173.732272574824,0,8.18198755494213,0,66.4724904206574,164.445965115994,1.95427777934189,7.6996467428082,0.337658499256705,0,0.0742878547351717,0.257463432130597,0,1731.80046983221,489.369767285238,0.180084532936911,0
"41893",1979,258,405.451158210609,94.862786491596,69.1553694262329,10.6631572733309,171.265930947137,0,8.2556490702151,0,66.9544994272014,164.754124296568,2.00633122935353,7.8262354376989,0.0863115826751795,0,0.0746662000838577,0.262218236207415,0,1691.82309319686,483.588122264836,0.0460328440934283,0
"41894",1979,259,389.258207678161,95.0580208379843,69.0866677010856,10.6752056431434,170.382503634146,0,8.28094415659185,0,67.1197886370705,164.858732755087,2.05729593913646,7.96280141474421,0,0,0.0747956246401841,0.265781422899173,0,1653.88530885895,481.327743456678,0,0
"41895",1979,260,377.42960660786,94.7482021034012,69.2445998727737,10.6574552810302,170.315437601537,0,8.25395441267406,0,66.9662029698326,164.410067895719,2.10947039268567,8.19395581579198,0,0,0.0747178526587988,0.268648580152188,0.0123847913358142,1616.38597441842,480.929412122703,0,0.31535422492678
"41896",1979,261,366.23328045024,93.8469112391596,69.7040389176843,10.6056842571366,170.254905588221,0,8.17543879400416,0,66.518345616213,163.103312985628,2.1649988841311,8.59555922458404,0,0,0.0744916068947687,0.271378862729656,0.048413275221819,1577.66316387699,480.569557975844,0,1.23274833380469
"41897",1979,262,355.637634974649,92.3963962545207,70.4434486305874,10.5221126651311,170.200440631262,0,8.04907772020727,0,65.7955660483529,160.997327526835,2.22352189268413,9.15509919037612,0,0,0.0741274926182828,0.273978904628074,0.106396616475858,1537.84832951286,480.245430643194,0,2.70917947778007
"41898",1979,263,345.611075950432,90.4389051587459,71.4412928062526,10.4089605986826,170.15157576772,0,7.87855161090857,0,64.8172137383937,158.15097102136,2.28467989755612,9.86006326242396,0,0,0.07363611509953,0.276455339843934,0.184645979915775,1497.07292360423,479.95427975185,0,4.70164480799927
"41899",1979,264,336.122009146936,88.0166859610965,72.6760352394499,10.2684481514597,170.107844034656,0,7.66754088573319,0,63.6026381584765,154.623102971222,2.34811337795844,10.6979389899833,0,0,0.0730280796086992,0.278814802373731,0.281472530359413,1455.4683984293,479.693354928908,0,7.16714147560864
"41900",1979,265,327.138840333507,85.1719866708339,74.1261397249491,10.1027954171312,170.068778469134,0,7.41972596430629,0,62.1711887807426,150.472582878443,2.41346281310245,11.6562139223099,0,0,0.0723139914159792,0.281063926213959,0.395187432624616,1413.16620626628,479.459905801463,0,10.0626666317545
"41901",1979,266,318.629975279492,81.9470552972193,75.77007005752,9.91422248936576,170.033912108214,0,7.13878726625303,0,60.5422150773332,145.758270245042,2.48036868219954,12.7223756086595,0,0,0.0715044557915591,0.283209345361111,0.524101851529227,1370.29779939336,479.25118199661,0,13.3452174275833
"41902",1979,267,310.563819754236,78.3841398495141,77.5862900319323,9.7049494618321,170.002777988959,0,6.82840521119855,0,58.7350665203895,140.539024573039,2.54847146446107,13.8839115982878,0,0,0.0706100780056277,0.285257693811683,0.66652695189109,1326.99463008877,479.064433141447,0,16.9717910142413
"41903",1979,268,302.908779527085,74.5254883369797,79.5532634429559,9.47719642819893,169.974909148429,0,6.49226021876801,0,56.7690925820529,134.873705364454,2.6174116390984,15.1283094404505,0,0,0.069641463328374,0.287215605562167,0.820773898528048,1283.38815063069,478.896908863068,0,20.8993845428748
"41904",1979,269,295.633260367388,70.4133487688772,81.6494540853607,9.23318348213499,169.949838623688,0,6.13403270858655,0,54.6636427344644,128.821172121308,2.68682968532291,16.4430566844035,0,0,0.0686092170299867,0.289089714609059,0.985153856257945,1239.60981329733,478.745858788569,0,25.0849951646302
"41905",1979,270,288.705668044489,66.0899691544682,83.8533257539164,8.97513071730897,169.927099451796,0,5.75740310027934,0,52.4380664497654,122.440284345621,2.75636608234597,17.8156408794024,0,0,0.067523944380655,0.290886654948851,1.15797798989862,1195.79107036689,478.608532545045,0,29.4856200306539
"41906",1979,271,282.094408327734,61.5975975030138,86.1433422433928,8.70525822738961,169.906224669815,0,5.36605181347151,0,50.1117132000971,115.789901539413,2.82566130937894,19.233549574703,0,0,0.0663962506505675,0.292613060578039,1.33755746426793,1152.06337411758,478.482179759593,0,34.0582562920922
"41907",1979,272,275.767886986471,56.9784818237755,88.4979673485598,8.4257861060456,169.886747314807,0,4.96365926778824,0,47.7039324576007,108.928883204703,2.8943558456332,20.684270319561,0,0,0.0652367411099134,0.294275565493116,1.5222034441837,1108.55817682761,478.364050059309,0,38.7599011000915
"41908",1979,273,269.694509790046,52.2748701260144,90.8956648641871,8.13893444694567,169.868200423834,0,4.55390588285466,0,45.2340736944174,101.916088843513,2.96209017032011,22.1552906632321,0,0,0.0640560210288814,0.295880803690577,1.71022709446379,1065.40693077516,478.251393071287,0,43.5475516057981
"41909",1979,274,263.842682507804,47.5290104189921,93.3148985850447,7.84692334375853,169.850117033958,0,4.14047207829592,0,42.7214863826886,94.8103779578621,3.02850476265104,23.6340981549722,0,0,0.0628646956776606,0.297435409166914,1.89993957992604,1022.74108823846,478.141458422623,0,48.3782049603583
"41910",1979,275,258.180810909092,42.7831507119698,95.7341323059022,7.5519728901529,169.83203018224,0,3.72703827373719,0,40.1855199945554,87.6706100497705,3.09324010183737,25.1081803440369,0,0,0.0616733703264397,0.298946015918623,2.08965206538828,980.692101495694,478.031495740414,0,53.2088583149185
"41911",1979,276,252.677300763257,38.0795390142088,98.1318298215295,7.25630317979749,169.813472905742,0,3.31728488880361,0,37.6455240021591,80.5556446212586,3.15593666709046,26.565024779682,0,0,0.0604926502454077,0.300419257942198,2.27767571566837,939.391422825074,477.918754651755,0,57.9965088206251
"41912",1979,277,247.300557839645,33.4604233349705,100.486454926697,6.96213430636102,169.793978241525,0,2.91489234312033,0,35.1208478776409,73.5243411743464,3.21623493762168,27.9921190111632,0,0,0.0593331407047536,0.301861769234132,2.46232169558414,898.970504504803,477.800484783741,0,62.6981536286244
"41913",1979,278,242.018987907602,28.9680516835161,102.776471416173,6.6716863635122,169.773079226652,0,2.52354105631251,0,32.630841093142,66.6355592110541,3.2737753926424,29.3769505877362,0,0,0.0582054469746661,0.30328018379092,2.64190116995345,859.560798813083,477.673935763468,0,67.2707898900627
"41914",1979,279,236.800996736474,24.644672069107,104.980343084729,6.38717944491974,169.750308898185,0,2.14691144800529,0,30.1948531208037,59.9481582334017,3.32819851136399,30.7070070586568,0,0,0.0571201743253344,0.304681135609055,2.81472530359413,821.293758028118,477.536357218033,0,71.6714147560864
"41915",1979,280,231.614990095608,20.5325325010046,107.076533727133,6.11083364425237,169.725200293184,0,1.78868393782384,0,27.8322334327672,53.5209977434096,3.37914477299781,31.9697759731808,0,0,0.0560879280269471,0.306071258685032,2.97910526132403,784.300834428111,477.38499877453,0,75.8570253778418
"41916",1979,281,226.429373754349,16.6738809884701,109.043507138157,5.84486905517879,169.697286448712,0,1.45253894539329,0,25.5623315011738,47.4129372430977,3.42625465675525,33.1527448805639,0,0,0.0551193133496934,0.307457187015345,3.13335220796098,748.713480291265,477.217110060056,0,79.7846189064753
"41917",1979,282,221.212553482046,13.1109655407649,110.859727112569,5.59150577136772,169.666100401831,0,1.14215689033881,0,23.4044967981647,41.6828362344862,3.46916864184766,34.2434013300617,0,0,0.054224935563762,0.308845554596488,3.27577730832285,714.663147895785,477.029940701706,0,83.4111924931333
"41918",1979,283,215.932935048042,9.88603416715036,112.50365744514,5.35296388648788,169.631175189601,0,0.861218192285549,0,21.3780787958811,36.3895542195953,3.50752720748642,35.2292328709301,0,0,0.0534153999393418,0.310242995424955,3.40469172722746,682.281289519873,476.820740326575,0,86.6937432889621
"41919",1979,284,210.558924221686,7.0413348768877,113.953761930639,5.13146349420798,169.592043849086,0,0.613403270858653,0,19.5024269664642,31.5919507004452,3.5409708328829,36.0977270524248,0,0,0.0527013117466219,0.31165614349724,3.51840662949266,651.699357441733,476.58675856176,0,89.589268445108
"41920",1979,285,205.058926772323,4.61911567923833,115.188504363837,4.92922468819674,169.548239417347,0,0.402392545683274,0,17.7968907820554,27.3488851790559,3.56913999724846,36.8363714238016,0,0,0.0520932762557911,0.313091632809836,3.6152331799363,623.048803939568,476.325245034356,0,92.0547651127173
"41921",1979,286,199.401348469299,2.66162458346354,116.186348539502,4.74846756212287,169.499294931444,0,0.231866436384569,0,16.2808197147958,23.7192171574476,3.59167517979448,37.4326535343161,0,0,0.0516018987370383,0.314556097359239,3.69348254337621,596.461081291582,476.033449371459,0,94.0472304429365
"41922",1979,287,193.554595081962,1.21110959882466,116.925758252405,4.59141220965509,169.444743428441,0,0.105505362587683,0,14.9735632368266,20.7618061376405,3.60821685973232,37.8740609332241,0,0,0.0512377844605524,0.316056171141942,3.75146588463025,572.067641775977,475.708621200165,0,95.5236615869119
"41923",1979,288,187.487072379656,0.309818734583047,117.385197297316,4.4602787244621,169.384117945399,0,0.0269897439177758,0,13.8944708202892,18.5355116216547,3.61840551627335,38.1480811697814,0,0,0.0510115386965223,0.31759848815444,3.78749436851626,549.999937670959,475.348010147569,0,96.4410556957898
"41924",1979,289,181.167186131729,0,117.543129469004,4.35728720021264,169.31695151938,0,0,0,13.0628919373246,17.0991931115103,3.62188162862895,38.2422017932436,0,0,0.0509337667151369,0.319189682393225,3.79987915985207,530.389421254729,474.948865840766,0,96.7564099207166
"41925",1979,290,174.543381834596,0,117.37510818099,4.27161821184144,168.699138859523,0,0,0,12.3649231439562,16.0887305456186,3.6100769773949,38.2143697452052,0,0,0.0519615724126569,0.320782118913468,3.79417971598671,512.306402475462,473.13463926895,0,96.4410556957898
"41926",1979,291,167.610150973897,0,116.884400355335,4.19077489088941,167.036740224554,0,0,0,11.6745146244254,15.1012896856405,3.57573617380494,38.13256458371,0,0,0.0549515526236242,0.322326622684211,3.77759951565112,494.726860891516,468.655822536479,0,95.5236615869119
"41927",1979,292,160.404968302819,0,116.091040049618,4.11446116593445,164.404536975913,0,0,0,10.9927962932014,14.1376587684709,3.52046894302734,37.9993227826884,0,0,0.0597635520256495,0.323827517572756,3.75091575573602,477.640753196374,461.700226943201,0,94.0472304429366
"41928",1979,293,152.965308574546,0,115.01506132142,4.04238096555449,160.877310475042,0,0,0,10.3208980647531,13.1986260310044,3.44588501023039,37.8171808160707,0,0,0.066257415296344,0.325289127446407,3.71490563313215,461.038036083517,452.455663788961,0,92.0547651127173
"41929",1979,294,145.328646542265,0,113.676498228318,3.97423821832743,156.529842083382,0,0,0,9.65994985354963,12.2849797101359,3.35359410058236,37.5886751577871,0,0,0.0742929871133184,0.326715776172466,3.67034634473024,444.908666246426,441.109944373607,0,89.589268445108
"41930",1979,295,137.53245695916,0,112.095384827893,3.9097368528312,151.436913162373,0,0,0,9.01108157406005,11.3975080427602,3.24520593925154,37.3163422817681,0,0,0.0837301121541837,0.328111787618238,3.61801508742102,429.242600378583,427.850879996986,0,86.6937432889621
"41931",1979,296,129.614214578418,0,110.291755177725,3.84858079764371,145.673305073457,0,0,0,8.37542314075339,10.536999265772,3.1223302514062,37.0027186619438,0,0,0.0944286350965508,0.329481485651024,3.55868905809521,414.02979517347,412.866281958944,0,83.4111924931333
"41932",1979,297,121.611394153223,0,108.285643335393,3.79047398134288,139.313799178073,0,0,0,7.75410446809871,9.70424161606613,2.98657676221463,36.6503407722445,0,0,0.106248400618031,0.330829194138129,3.49314545364357,399.260207324568,396.343961559329,0,79.7846189064754
"41933",1979,298,113.561470436762,0,106.097083358476,3.73512033250662,132.433176837665,0,0,0,7.14825547056505,8.90002333053737,2.8395551968451,36.2617450866006,0,0,0.119049253396234,0.332159236946856,3.4221614709568,384.923793525358,378.471730097986,0,75.8570253778418
"41934",1979,299,105.501918182219,0,103.746109304554,3.68222377971284,125.106219413671,0,0,0,6.55900606262146,8.12513264608049,2.68287528046589,35.8394680789423,0,0,0.132691038108772,0.333475937944506,3.34651430692565,371.010510469323,359.437398874763,0,71.6714147560864
"41935",1979,300,97.470212142781,0,101.252755231206,3.63148825153947,117.407708267533,0,0,0,5.98748615873699,7.38035779959027,2.51814673824528,35.3860462232,0,0,0.147033599433255,0.334783620998385,3.26698115844084,357.510314849943,339.428779189506,0,67.2707898900627
"41936",1979,301,89.5038270716326,0,98.6370551960123,3.58261767656441,109.412424760693,0,0,0,5.43482567338068,6.66648702796149,2.34697929535156,34.904015993304,0,0,0.161936782047295,0.336086609975794,3.18433922239311,344.413163360701,318.633682342063,0,62.6981536286244
"41937",1979,302,81.6402377219595,0,95.9190432565519,3.53531598336559,101.19515025459,0,0,0,4.9021545210216,5.98430856808893,2.170982676953,34.3959138631845,0,0,0.177260430628502,0.337389228744038,3.09936569567318,331.709012695078,297.23991963228,0,57.9965088206251
"41938",1979,303,73.9169188469473,0,93.1187534704044,3.48928710052091,92.8306661106663,0,0,0,4.39060261612878,5.33461065686739,1.99176660821788,33.8642763067718,0,0,0.192864389854487,0.338695801170418,3.0128377751718,319.387819546555,275.435302360004,0,53.2088583149185
"41939",1979,304,66.3713451997813,0,90.2562198951494,3.44423495660831,84.3937536903623,0,0,0,3.90129987317128,4.71818153119162,1.81094081431448,33.3116397979962,0,0,0.208608504402862,0.340010651122238,2.92553265777968,307.439540608614,253.407641825081,0,48.3782049603583
"41940",1979,305,59.0409915336473,0,87.3514765883663,3.39986348020568,75.959194355119,0,0,0,3.43537620661814,4.13580942795642,1.63011502041107,32.7405408107881,0,0,0.224352618951236,0.341338102466802,2.83822754038756,295.854132574736,231.344749327359,0,43.5475516057981
"41941",1979,306,51.9633326017306,0,84.4245576076346,3.35587659989095,67.6017694663773,0,0,0,2.99396153093841,3.58828258405656,1.45089895167595,32.1535158190777,0,0,0.239956578177221,0.342682479071413,2.75169961988618,284.621552138404,209.434436166683,0,38.7599011000915
"41942",1979,307,45.1758431572167,0,81.4954970105339,3.31197824424203,59.3962603855781,0,0,0,2.57818576060115,3.07638923638683,1.27490233327739,31.5531012967954,0,0,0.255280226758428,0.344048104803373,2.66672609316625,273.731755993099,187.864513642902,0,34.0582562920923
"41943",1979,308,38.7159979532913,0,78.5843288546437,3.26787234183683,51.4174484741623,0,0,0,2.1891788100754,2.60091762184201,1.10373489038367,30.9418337178713,0,0,0.270183409372468,0.345439303529986,2.58408415711852,263.174700832301,166.822793055862,0,29.4856200306539
"41944",1979,309,32.6212717431397,0,75.7110871975435,3.22326282125328,43.740115093571,0,0,0,1.82807059383021,2.16265597731688,0.939006348163061,30.3222495562359,0,0,0.284525970696952,0.346860399118555,2.50455100863371,252.940343349494,146.49708570541,0,25.0849951646303
"41945",1979,310,26.9291392799476,0,72.8958060968127,3.17785361106929,36.4390416052449,0,0,0,1.49599102633464,1.76239253970621,0.782326431783853,29.6968852858193,0,0,0.298167755409489,0.348315715436383,2.42890384460256,243.018640238158,127.075202891391,0,20.8993845428748
"41946",1979,311,21.6770753169003,0,70.1585196100309,3.13134863986277,29.589009370625,0,0,0,1.19407002205772,1.40091554590479,0.635304866414323,29.068277380552,0,0,0.310968608187693,0.349809576350773,2.35791986191579,233.399548191775,108.744955913654,0,16.9717910142413
"41947",1979,312,16.9025546071835,0,67.5192617947777,3.08345183621165,23.2647997511523,0,0,0,0.923437495468509,1.07901323280739,0.499551377222749,28.4389623143642,0,0,0.322788373709173,0.351346305729028,2.29237625746414,224.073023903826,91.6941560720447,0,13.3452174275833
"41948",1979,313,12.6430519039826,0,64.9980667086324,3.03386712869383,17.5411941082676,0,0,0,0.685223361036055,0.797473837308807,0.376675689377411,27.8114765611861,0,0,0.33348689665154,0.352930227438452,2.23305022813834,215.029024067794,76.1106146664102,0,10.0626666317546
"41949",1979,314,8.9360419604831,0,62.6149684091747,2.98229844588723,12.4929738034119,0,0,0,0.48055753322941,0.557085596303811,0.26828752804659,27.1883565949482,0,0,0.342924021692405,0.354565665346348,2.18071897082912,206.257505377159,62.1821429965971,0,7.16714147560864
"41950",1979,315,5.81899952987058,0,60.390000953984,2.92844971636976,8.19492019802607,0,0,0,0.310569926517621,0.358636746687189,0.175996618398563,26.5721388895807,0,0,0.35095959350938,0.356256943320018,2.13615968242721,197.748424525403,50.0965523624524,0,4.70164480799929
"41951",1979,316,3.32939936533049,0,58.3431984006398,2.87202486871935,4.72181465355101,0,0,0,0.176390455369736,0.202915525353713,0.101412685601611,25.9653599190138,0,0,0.357453456780074,0.358008385226767,2.10014955982334,189.491738206008,40.0416540638228,0,2.70917947778008
"41952",1979,317,1.50471622004838,0,56.4945948067217,2.81272783151391,2.14843853142773,0,0,0,0.0791490342548045,0.090710169198168,0.0461454548240137,25.3705561571779,0,0,0.362265456182099,0.359824314933896,2.07346579990824,181.477403112455,32.2052594005548,0,1.23274833380471
"41953",1979,318,0.382424847209734,0,54.8642242298091,2.75026253333135,0.549573193097046,0,0,0,0.0199755776418762,0.0228089151153412,0.0118046512340504,24.7902640780033,0,0,0.365255436393067,0.36170905630871,2.05688559957265,173.695375938226,26.7751796724957,0,0.315354224926793
"41954",1979,319,0,0,53.4721207274816,2.68433290274959,0,0,0,0,0,0,0,24.2270201554203,0,0,0.366283242090587,0.363666933218511,2.05118615570729,166.135613376802,23.939226179492,0,0
"41955",1979,320,0,0,52.2012592982945,2.61267394908655,0.0213934692100843,0,0,0,0,0,0,23.6437417239383,0,0,0.36609389759298,0.365826908282721,2.05771977038443,158.649173590189,22.4835225787555,0,0
"41956",1979,321,0,0,50.9234561373167,2.53365686502513,0.0836931322943958,0,0,0,0,0,0,23.0050254682651,0,0,0.36554250977028,0.368297806087004,2.076746230708,151.107406318218,21.0692687803076,0,0
"41957",1979,322,0,0,49.6420070968983,2.4479398541907,0.184077872434022,0,0,0,0,0,0,22.3159268876287,0,0,0.364654047127665,0.371053743448025,2.10740396111616,143.530705621113,19.6968904632093,0,0
"41958",1979,323,0,0,48.3602080293894,2.35618112020863,0.319726572810051,0,0,0,0,0,0,21.5815014812567,0,0,0.363453478170314,0.374068837182451,2.14883138604709,135.939465559094,18.3668133065216,0,0
"41959",1979,324,0,0,47.08135478714,2.2590388667043,0.487818116603571,0,0,0,0,0,0,20.806804748377,0,0,0.361965771403406,0.377317204106948,2.20016692993897,128.354080192386,17.0794629893055,0,0
"41960",1979,325,0,0,45.8087432225002,2.15717129730308,0.685531386995669,0,0,0,0,0,0,19.9968921882174,0,0,0.360215895332119,0.380772961038181,2.26054901722999,120.794943581209,15.835265190622,0,0
"41961",1979,326,0,0,44.54566918782,2.05123661563035,0.910045267167433,0,0,0,0,0,0,19.1568193000057,0,0,0.358228818461633,0.384410224792817,2.32911607235831,113.282449785786,14.6346455895319,0,0
"41962",1979,327,0,0,43.2954285354495,1.94189302531147,1.15853864029995,0,0,0,0,0,0,18.2916415829698,0,0,0.356029509297127,0.388203112187522,2.40500651976211,105.83699286634,13.4780298650964,0,0
"41963",1979,328,0,0,42.0613171177388,1.82979872997182,1.42819038957431,0,0,0,0,0,0,17.4064145363374,0,0,0.35364293634378,0.39212574003896,2.48735878387958,98.4789668830932,12.3658436963765,0,0
"41964",1979,329,0,0,40.846630787038,1.71561193323677,1.7161793981716,0,0,0,0,0,0,16.5061936593364,0,0,0.351094068106769,0.3961522251638,2.57531128914889,91.2287658962675,11.298512762433,0,0
"41965",1979,330,0,0,39.654665395697,1.5999908387317,2.01968454927291,0,0,0,0,0,0,15.5960344511945,0,0,0.348407873091275,0.400256684378705,2.66800246000822,84.1067839660854,10.276462742327,0,0
"41966",1979,331,0,0,38.488716796066,1.48359365008198,2.33588472605932,0,0,0,0,0,0,14.6809924111397,0,0,0.345609319802476,0.404413234500343,2.76457072089574,77.1334151527693,9.30011931511949,0,0
"41967",1979,332,0,0,37.3520808404949,1.36707857091298,2.66195881171192,0,0,0,0,0,0,13.7661230383997,0,0,0.34272337674555,0.40859599234538,2.86415449624965,70.3290535165414,8.36990815987144,0,0
"41968",1979,333,0,0,36.248053381334,1.25110380485008,2.99508568941181,0,0,0,0,0,0,12.8564818322023,0,0,0.339775012425678,0.41277907473048,2.96589221050811,63.7140931176242,7.48625495564385,0,0
"41969",1979,334,0,0,35.1799302709332,1.13632755551865,3.33244424234006,0,0,0,0,0,0,11.9571242917754,0,0,0.336789195348037,0.416936598472311,3.0689222881093,57.3089280162399,6.6495853814977,0,0
"41970",1979,335,0,0,34.1510073616425,1.02340802654405,3.67121335367777,0,0,0,0,0,0,11.0731059163467,0,0,0.333790894017806,0.421042680387538,3.1723831534914,51.1339522726109,5.86032511649397,0,0
"41971",1979,336,0,0,33.1645805058121,0.913003421551678,4.00857190660602,0,0,0,0,0,0,10.2094822051441,0,0,0.330805076940166,0.425071437292827,3.27541323109259,45.2095599469596,5.11889983969365,0,0
"41972",1979,337,0,0,32.2239455557921,0.80577194416689,4.3416987843059,0,0,0,0,0,0,9.37130865739538,0,0,0.327856712620293,0.428996986004844,3.37715094535105,39.5561450995082,4.42573523015773,0,0
"41973",1979,338,0,0,31.3323983639323,0.702371798015064,4.66777286995851,0,0,0,0,0,0,8.56364077232836,0,0,0.324970769563368,0.432793443340256,3.47673472070496,34.1941017904791,3.78125696694719,0,0
"41974",1979,339,0,0,30.4932347825831,0.603461186721573,4.98397304674492,0,0,0,0,0,0,7.79153404917086,0,0,0.322172216274568,0.436434926115727,3.57330298159248,29.1438240800947,3.18589072912302,0,0
"41975",1979,340,0,0,29.7097506640943,0.50969831391179,5.28747819784623,0,0,0,0,0,0,7.0600439871507,0,0,0.319486021259074,0.439895551147925,3.66599415245181,24.4257060285772,2.64006219574622,0,0
"41976",1979,341,0,0,28.985241860816,0.421741383211088,5.57546720644351,0,0,0,0,0,0,6.37422608549568,0,0,0.316937153022064,0.443149435253514,3.75394665772112,20.0601416961491,2.14419704587776,0,0
"41977",1979,342,0,0,28.3230042250984,0.34024859824484,5.84511895571787,0,0,0,0,0,0,5.73913584343363,0,0,0.314550580068716,0.446170695249161,3.83629892183859,16.0675251430326,1.69872095857863,0,0
"41978",1979,343,0,0,27.7263336092915,0.26587816263842,6.09361232885039,0,0,0,0,0,0,5.15982876019235,0,0,0.31235127090421,0.448933447951532,3.9121893692424,12.4682504294501,1.30405961290982,0,0
"41979",1979,344,0,0,27.1985258657452,0.199288280017201,6.31812620902216,0,0,0,0,0,0,4.64136033499967,0,0,0.310364194033724,0.451411810177293,3.98075642437072,9.28271161562384,0.960638687932317,0,0
"41980",1979,345,0,0,26.7428768468098,0.141137154006556,6.51583947941425,0,0,0,0,0,0,4.1887860670834,0,0,0.308614317962438,0.45357989874311,4.04113851166173,6.53130276177626,0.668883862707105,0,0
"41981",1979,346,0,0,26.3626824048352,0.0920829882318572,6.68393102320777,0,0,0,0,0,0,3.80716145567134,0,0,0.307126611195529,0.455411830465649,4.09247405555361,4.23441792812969,0.429220816295175,0,0
"41982",1979,347,0,0,26.0612383921716,0.0527839863184791,6.8195797235838,0,0,0,0,0,0,3.50154199999133,0,0,0.305926042238178,0.456881722161575,4.13390148048454,2.41245117490644,0.24207522775751,0,0
"41983",1979,348,0,0,25.8418406611689,0.0238983518917952,6.91996446372343,0,0,0,0,0,0,3.27698319927116,0,0,0.305037579595563,0.457963690647555,4.1645592108927,1.08579656232882,0.107872776155101,0,0
"41984",1979,349,0,0,25.7077850641772,0.00608428857717724,6.98226412680774,0,0,0,0,0,0,3.13854055273867,0,0,0.304486191772863,0.458631852740254,4.18358567121627,0.274848150619221,0.0270391405489292,0,0
"41985",1979,350,0,0,25.6623674535466,0,7.00365759601783,0,0,0,0,0,0,3.09126955962165,0,0,0.304296847275257,0.45886032525634,4.19011928589341,0,0,0,0
"41986",1979,351,0,0,25.6623674535466,0,7.00365759601783,0,0,0,0,0,0,3.09126955962165,0,0,0.304296847275257,0.45886032525634,4.19011928589341,0,0,0,0
"41987",1979,352,0,0,25.6623674535466,0,7.00365759601783,0,0,0,0,0,0,3.09126955962165,0,0,0.304296847275257,0.45886032525634,4.19011928589341,0,0,0,0
"41988",1979,353,0,0,25.6623674535466,0,7.00365759601783,0,0,0,0,0,0,3.09126955962165,0,0,0.304296847275257,0.45886032525634,4.19011928589341,0,0,0,0
"41989",1979,354,0,0,25.6623674535466,0,7.00365759601783,0,0,0,0,0,0,3.09126955962165,0,0,0.304296847275257,0.45886032525634,4.19011928589341,0,0,0,0
"41990",1979,355,0,0,25.6623674535466,0,7.00365759601783,0,0,0,0,0,0,3.09126955962165,0,0,0.304296847275257,0.45886032525634,4.19011928589341,0,0,0,0
"41991",1979,356,0,0,25.6623674535466,0,7.00365759601783,0,0,0,0,0,0,3.09126955962165,0,0,0.304296847275257,0.45886032525634,4.19011928589341,0,0,0,0
"41992",1979,357,0,0,25.6623674535466,0,7.00365759601783,0,0,0,0,0,0,3.09126955962165,0,0,0.304296847275257,0.45886032525634,4.19011928589341,0,0,0,0
"41993",1979,358,0,0,25.6623674535466,0,7.00365759601783,0,0,0,0,0,0,3.09126955962165,0,0,0.304296847275257,0.45886032525634,4.19011928589341,0,0,0,0
"41994",1979,359,0,0,25.6623674535466,0,7.00365759601783,0,0,0,0,0,0,3.09126955962165,0,0,0.304296847275257,0.45886032525634,4.19011928589341,0,0,0,0
"41995",1979,360,0,0,25.6623674535466,0,7.00365759601783,0,0,0,0,0,0,3.09126955962165,0,0,0.304296847275257,0.45886032525634,4.19011928589341,0,0,0,0
"41996",1979,361,0,0,25.6623674535466,0,7.00365759601783,0,0,0,0,0,0,3.09126955962165,0,0,0.304296847275257,0.45886032525634,4.19011928589341,0,0,0,0
"41997",1979,362,0,0,25.6623674535466,0,7.00365759601783,0,0,0,0,0,0,3.09126955962165,0,0,0.304296847275257,0.45886032525634,4.19011928589341,0,0,0,0
"41998",1979,363,0,0,25.6623674535466,0,7.00365759601783,0,0,0,0,0,0,3.09126955962165,0,0,0.304296847275257,0.45886032525634,4.19011928589341,0,0,0,0
"41999",1979,364,0,0,25.6623674535466,0,7.00365759601783,0,0,0,0,0,0,3.09126955962165,0,0,0.304296847275257,0.45886032525634,4.19011928589341,0,0,0,0
"42000",1979,365,0,0,25.6623674535466,0,7.00365759601783,0,0,0,0,0,0,3.09126955962165,0,0,0.304296847275257,0.45886032525634,4.19011928589341,0,0,0,0
"42001",1980,1,0,0,1.41280679092083,3.33317750302434,0,0,0,0,0,0,0,1.77909003301142,0,0,0,0,0.0837218839064197,0,0,0,0
"42002",1980,2,0,0,1.41280679092083,3.33317750302434,0,0,0,0,0,0,0,1.77909003301142,0,0,0,0,0.0837218839064197,0,0,0,0
"42003",1980,3,0,0,1.41280679092083,3.33317750302434,0,0,0,0,0,0,0,1.77909003301142,0,0,0,0,0.0837218839064197,0,0,0,0
"42004",1980,4,0,0,1.41280679092083,3.33317750302434,0,0,0,0,0,0,0,1.77909003301142,0,0,0,0,0.0837218839064197,0,0,0,0
"42005",1980,5,0,0,1.41280679092083,3.33317750302434,0,0,0,0,0,0,0,1.77909003301142,0,0,0,0,0.0837218839064197,0,0,0,0
"42006",1980,6,0,0,1.41280679092083,3.33317750302434,0,0,0,0,0,0,0,1.77909003301142,0,0,0,0,0.0837218839064197,0,0,0,0
"42007",1980,7,0,0,1.41280679092083,3.33317750302434,0,0,0,0,0,0,0,1.77909003301142,0,0,0,0,0.0837218839064197,0,0,0,0
"42008",1980,8,0,0,1.41280679092083,3.33317750302434,0,0,0,0,0,0,0,1.77909003301142,0,0,0,0,0.0837218839064197,0,0,0,0
"42009",1980,9,0,0,1.41280679092083,3.33317750302434,0,0,0,0,0,0,0,1.77909003301142,0,0,0,0,0.0837218839064197,0,0,0,0
"42010",1980,10,0,0,1.41280679092083,3.33317750302434,0,0,0,0,0,0,0,1.77909003301142,0,0,0,0,0.0837218839064197,0,0,0,0
"42011",1980,11,0,0,1.41280679092083,3.33317750302434,0,0,0,0,0,0,0,1.77909003301142,0,0,0,0,0.0837218839064197,0,0,0,0
"42012",1980,12,0,0,1.41280679092083,3.33317750302434,0,0,0,0,0,0,0,1.77909003301142,0,0,0,0,0.0837218839064197,0,0,0,0
"42013",1980,13,0,0,1.41280679092083,3.33317750302434,0,0,0,0,0,0,0,1.77909003301142,0,0,0,0,0.0837218839064197,0,0,0,0
"42014",1980,14,0,0,1.41280679092083,3.33317750302434,0,0,0,0,0,0,0,1.77909003301142,0,0,0,0,0.0837218839064197,0,0,0,0
"42015",1980,15,0,0,1.41280679092083,3.33317750302434,0,0,0,0,0,0,0,1.77909003301142,0,0,0,0,0.0837218839064197,0,0,0,0
"42016",1980,16,0,0,1.59819859040661,3.32382708156786,0,0,0,0,0,0,0,1.78936522142513,0,0,0.000127869011370619,0,0.0834661458836785,0,0.0417857662157558,0,0
"42017",1980,17,0,0,2.13807580868935,3.29659783227153,0,0,0,0,0,0,0,1.81928747339912,0,0,0.000500234813713629,0,0.0827214142789925,0,0.16346959090999,0,0
"42018",1980,18,0,0,3.00799117550721,3.25272277774499,0,0,0,0,0,0,0,1.86750181903269,0,0,0.00110023555937576,0,0.0815214127876682,0,0.359541263153152,0,0
"42019",1980,19,0,0,4.18349742059832,3.19343494059788,0,0,0,0,0,0,0,1.93265328842511,0,0,0.00191100940070375,0,0.0798998651050122,0,0.624490572015692,0,0
"42020",1980,20,0,0,5.64014727370082,3.11996734343985,0,0,0,0,0,0,0,2.0133869116757,0,0,0.00291569449004432,0,0.0778904949263311,0,0.952807306568059,0,0
"42021",1980,21,0,0,7.35349346455285,3.03355300888054,0,0,0,0,0,0,0,2.10834771888372,0,0,0.00409742897974422,0,0.0755270259469313,0,1.3389812558807,0,0
"42022",1980,22,0,0,9.29908872289256,2.93542495952961,0,0,0,0,0,0,0,2.21618074014849,0,0,0.00543935102215016,0,0.0728431818621194,0,1.77750220902408,0,0
"42023",1980,23,0,0,11.4524857784581,2.82681621799669,0,0,0,0,0,0,0,2.33553100556928,0,0,0.00692459876960888,0,0.069872686367202,0,2.26285995506862,0,0
"42024",1980,24,0,0,13.7892373609875,2.70895980689143,0,0,0,0,0,0,0,2.46504354524539,0,0,0.00853631037446712,0,0.0666492631574855,0,2.7895442830848,0,0
"42025",1980,25,0,0,16.2848962002191,2.58308874882348,0,0,0,0,0,0,0,2.6033633892761,0,0,0.0102576239890716,0,0.0632066359282765,0,3.35204498214305,0,0
"42026",1980,26,0,0,18.9150150258909,2.45043606640248,0,0,0,0,0,0,0,2.74913556776072,0,0,0.0120716777657691,0,0.0595785283748816,0,3.94485184131383,0,0
"42027",1980,27,0,0,21.655146567741,2.31223478223807,0,0,0,0,0,0,0,2.90100511079853,0,0,0.0139616098569062,0,0.0557986641926073,0,4.56245464966758,0,0
"42028",1980,28,0,0,24.4808435555077,2.16971791893991,0,0,0,0,0,0,0,3.05761704848882,0,0,0.0159105584148298,0,0.0519007670767601,0,5.19934319627476,0,0
"42029",1980,29,0,0,27.367658718929,2.02411849911763,0,0,0,0,0,0,0,3.21761641093088,0,0,0.0179016615918866,0,0.0479185607226465,0,5.85000727020582,0,0
"42030",1980,30,0,0,30.2911447877431,1.87666954538088,0,0,0,0,0,0,0,3.37964822822401,0,0,0.0199180575404233,0,0.0438857688255732,0,6.5089366605312,0,0
"42031",1980,31,0,0,33.2268544916882,1.72860408033932,0,0,0,0,0,0,0,3.54235753046749,0,0,0.0219428844127866,0,0.0398361150808465,0,7.17062115632135,0,0
"42032",1980,32,0,0,36.1503405605023,1.58115512660257,0,0,0,0,0,0,0,3.70438934776061,0,0,0.0239592803613233,0,0.0358033231837732,0,7.82955054664673,0,0
"42033",1980,33,0,0,39.0371557239236,1.4355557067803,0,0,0,0,0,0,0,3.86438871020268,0,0,0.02595038353838,0,0.0318211168296596,0,8.48021462057779,0,0
"42034",1980,34,0,0,41.8628527116903,1.29303884348213,0,0,0,0,0,0,0,4.02100064789297,0,0,0.0278993320963036,0,0.0279232197138124,0,9.11710316718497,0,0
"42035",1980,35,0,0,44.6029842535405,1.15483755931773,0,0,0,0,0,0,0,4.17287019093077,0,0,0.0297892641874408,0,0.0241433555315381,0,9.73470597553872,0,0
"42036",1980,36,0,0,47.2331030792122,1.02218487689673,0,0,0,0,0,0,0,4.31864236941539,0,0,0.0316033179641383,0,0.0205152479781432,0,10.3275128347095,0,0
"42037",1980,37,0,0,49.7287619184438,0.896313818828773,0,0,0,0,0,0,0,4.45696221344611,0,0,0.0333246315787427,0,0.0170726207489342,0,10.8900135337678,0,0
"42038",1980,38,0,0,52.0655135009733,0.778457407723514,0,0,0,0,0,0,0,4.58647475312222,0,0,0.034936343183601,0,0.0138491975392177,0,11.4166978617839,0,0
"42039",1980,39,0,0,54.2189105565388,0.669848666190595,0,0,0,0,0,0,0,4.70582501854301,0,0,0.0364215909310597,0,0.0108787020443003,0,11.9020556078285,0,0
"42040",1980,40,0,0,56.1645058148785,0.57172061683966,0,0,0,0,0,0,0,4.81365803980777,0,0,0.0377635129734656,0,0.00819485795948841,0,12.3405765609718,0,0
"42041",1980,41,0,0,57.8778520057305,0.485306282280356,0,0,0,0,0,0,0,4.9086188470158,0,0,0.0389452474631655,0,0.00583138898008863,0,12.7267505102845,0,0
"42042",1980,42,0,0,59.334501858833,0.411838685122326,0,0,0,0,0,0,0,4.98935247026638,0,0,0.0399499325525061,0,0.00382201880140748,0,13.0550672448369,0,0
"42043",1980,43,0,0,60.5100081039241,0.352550847975217,0,0,0,0,0,0,0,5.05450393965881,0,0,0.0407607063938341,0,0.00220047111875149,0,13.3200165536994,0,0
"42044",1980,44,0,0,61.379923470742,0.308675793448673,0,0,0,0,0,0,0,5.10271828529237,0,0,0.0413607071394962,0,0.00100046962742721,0,13.5160882259426,0,0
"42045",1980,45,0,0,61.9198006890247,0.28144654415234,0,0,0,0,0,0,0,5.13264053726636,0,0,0.0417330729418393,0,0.000255738022741189,0,13.6377720506368,0,0
"42046",1980,46,0,0,62.1051924885105,0.272096122695865,0,0,0,0,0,0,0,5.14291572568007,0,0,0.0418609419532099,0,0,0,13.6795578168526,0,0
"42047",1980,47,0,0,61.9243192807312,0.272468697005442,0.0104797017674132,0,0,0,0,0,0,5.14173878067799,0,0,0.0417245062905475,0,0,0,13.6349725913754,0,0
"42048",1980,48,0,0,61.3981426762822,0.273552549542396,0.041768762412399,0,0,0,0,0,0,5.13831494067192,0,0,0.0413276025446208,0,0,0,13.5052701172601,0,0
"42049",1980,49,0,0,60.5513272034972,0.275296874719056,0.0936421149490765,0,0,0,0,0,0,5.13280469816215,0,0,0.04068883557852,0,0,0,13.2965301979807,0,0
"42050",1980,50,0,0,59.4085373907096,0.277650866947753,0.165874692391565,0,0,0,0,0,0,5.12536854564896,0,0,0.0398268102553354,0,0,0,13.0148326370114,0,0
"42051",1980,51,0,0,57.994437766253,0.280563720640816,0.258241427753984,0,0,0,0,0,0,5.11616697563264,0,0,0.0387601314381573,0,0,0,12.6662572378264,0,0
"42052",1980,52,0,0,56.333692858461,0.283984630210576,0.370517254050452,0,0,0,0,0,0,5.10536048061348,0,0,0.037507403990076,0,0,0,12.2568838038999,0,0
"42053",1980,53,0,0,54.4509671956671,0.287862790069364,0.502477104295089,0,0,0,0,0,0,5.09310955309176,0,0,0.036087232774182,0,0,0,11.7927921387059,0,0
"42054",1980,54,0,0,52.3709253062048,0.292147394629509,0.653895911502014,0,0,0,0,0,0,5.07957468556776,0,0,0.0345182226535653,0,0,0,11.2800620457187,0,0
"42055",1980,55,0,0,50.1182317184077,0.296787638303342,0.824548608685345,0,0,0,0,0,0,5.06491637054176,0,0,0.0328189784913165,0,0,0,10.7247733284124,0,0
"42056",1980,56,0,0,47.7175509606094,0.301732715503194,1.0142101288592,0,0,0,0,0,0,5.04929510051406,0,0,0.0310081051505258,0,0,0,10.1330057902611,0,0
"42057",1980,57,0,0,45.1935475611433,0.306931820641394,1.22265540503771,0,0,0,0,0,0,5.03287136798494,0,0,0.0291042074942835,0,0,0,9.51083923473912,0,0
"42058",1980,58,0,0,42.570886048343,0.312334148130273,1.44965937023497,0,0,0,0,0,0,5.01580566545468,0,0,0.02712589038568,0,0,0,8.86435346532045,0,0
"42059",1980,59,0,0,39.8742309505421,0.317888892382161,1.69499695746513,0,0,0,0,0,0,4.99825848542356,0,0,0.0250917586878055,0,0,0,8.19962828547932,0,0
"42060",1980,60,0,0,37.1282467960742,0.323545247809388,1.95844309974228,0,0,0,0,0,0,4.98039032039188,0,0,0.0230204172637504,0,0,0,7.52274349868988,0,0
"42061",1980,61,0,0,34.3575981132726,0.329252408824285,2.23977273008056,0,0,0,0,0,0,4.96236166285991,0,0,0.0209304709766049,0,0,0,6.83977890842628,0,0
"42062",1980,62,0,0,31.5869494304711,0.334959569839183,2.53876078149408,0,0,0,0,0,0,4.94433300532794,0,0,0.0188405246894595,0,0,0,6.15681431816267,0,0
"42063",1980,63,0,0,28.8409652760031,0.34061592526641,2.85518218699696,0,0,0,0,0,0,4.92646484029626,0,0,0.0167691832654044,0,0,0,5.47992953137323,0,0
"42064",1980,64,0,0,26.1443101782022,0.346170669518298,3.18881187960332,0,0,0,0,0,0,4.90891766026514,0,0,0.0147350515675299,0,0,0,4.8152043515321,0,0
"42065",1980,65,0,0,23.521648665402,0.351572997007177,3.53942479232728,0,0,0,0,0,0,4.89185195773488,0,0,0.0127567344589263,0,0,0,4.16871858211344,0,0
"42066",1980,66,0,0,20.9976452659359,0.356772102145377,3.90679585818296,0,0,0,0,0,0,4.87542822520576,0,0,0.010852836802684,0,0,0,3.5465520265914,0,0
"42067",1980,67,0,0,18.5969645081375,0.361717179345229,4.29070001018447,0,0,0,0,0,0,4.85980695517806,0,0,0.00904196346189333,0,0,0,2.95478448844015,0,0
"42068",1980,68,0,0,16.3442709203404,0.366357423019062,4.69091218134594,0,0,0,0,0,0,4.84514864015207,0,0,0.00734271929964452,0,0,0,2.39949577113384,0,0
"42069",1980,69,0,0,14.2642290308781,0.370642027579207,5.10720730468149,0,0,0,0,0,0,4.83161377262807,0,0,0.00577370917902791,0,0,0,1.88676567814663,0,0
"42070",1980,70,0,0,12.3815033680842,0.374520187437995,5.53936031320524,0,0,0,0,0,0,4.81936284510634,0,0,0.00435353796313383,0,0,0,1.42267401295267,0,0
"42071",1980,71,0,0,10.7207584602922,0.377941097007755,5.9871461399313,0,0,0,0,0,0,4.80855635008718,0,0,0.00310081051505259,0,0,0,1.01330057902611,0,0
"42072",1980,72,0,0,9.30665883583565,0.380853950700818,6.45033971787379,0,0,0,0,0,0,4.79935478007086,0,0,0.0020341316978745,0,0,0,0.664725179841129,0,0
"42073",1980,73,0,0,8.16386902304807,0.383207942929515,6.92871598004683,0,0,0,0,0,0,4.79191862755768,0,0,0.00117210637468987,0,0,0,0.383027618871871,0,0
"42074",1980,74,0,0,7.31705355026304,0.384952268106175,7.42204985946455,0,0,0,0,0,0,4.78640838504791,0,0,0.000533339408589038,0,0,0,0.17428769959249,0,0
"42075",1980,75,0,0,6.79087694581409,0.386036120643129,7.93011628914106,0,0,0,0,0,0,4.78298454504183,0,0,0.000136435662662311,0,0,0,0.0445852254771495,0,0
"42076",1980,76,0,0,6.61000373803474,0.386408694952706,8.45269020209048,0,0,0,0,0,0,4.78180760003975,0,0,0,0,0,0,0,0,0
"42077",1980,77,0.0351338813307836,0,6.65946006718321,0.385228365616978,9.18627483202311,0,0,0,0,0,0,4.78293304038947,0,0,0.0000706644536521839,0.000231619785425769,0,0.420453499230494,0.110323948469928,0,0
"42078",1980,78,0.139709495300717,0,6.80629577308686,0.381791142826119,10.3187532658182,0,0,0,0,0,0,4.78628753293848,0,0,0.000276445554947005,0.000906116962764546,0,1.64485105193468,0.434533597420803,0,0
"42079",1980,79,0.312487796876174,0,7.04821093343302,0.376252674404622,11.8369702162434,0,0,0,0,0,0,4.79183833493658,0,0,0.000608024914391868,0.00199294826360854,0,3.61774824063162,0.962485652164265,0,0
"42080",1980,80,0.552229741023528,0,7.38290562590903,0.368768608176979,13.7277703960662,0,0,0,0,0,0,4.79955270363355,0,0,0.00105608414249418,0.00346157041954995,0,6.28370064784036,1.68403681801195,0,0
"42081",1980,81,0.857696282709154,0,7.80807992820225,0.359494591967682,15.9779985180543,0,0,0,0,0,0,4.80939789627918,0,0,0.00161130484976134,0.00528144016218099,0,9.58726385607996,2.58904380027549,0,0
"42082",1980,82,1.22764837689943,0,8.32143391799999,0.348586273601221,18.5744992949751,0,0,0,0,0,0,4.82134117012326,0,0,0.00226436864670075,0.00742201422309387,0,13.4729934478695,3.66736330426654,0,0
"42083",1980,83,1.66084697856071,0,8.92066767298962,0.33619930090209,21.5041174395963,0,0,0,0,0,0,4.83534978241558,0,0,0.00300595714381982,0.00985274933388078,0,17.885445005728,4.90885203529672,0,0
"42084",1980,84,2.1560530426594,0,9.60348127085847,0.322489321694778,24.7536976646855,0,0,0,0,0,0,4.85139099040592,0,0,0.00382675195162596,0.0125431022261339,0,22.7691741121745,6.30336669867767,0,0
"42085",1980,85,2.71202752416185,0,10.3675747892939,0.307611983803779,28.3100846830102,0,0,0,0,0,0,4.86943205134408,0,0,0.00471743468062656,0.0154625296314456,0,28.0687363497281,7.84076399972104,0,0
"42086",1980,86,3.32753137803444,0,11.2106483059832,0.291722935053584,32.160123207338,0,0,0,0,0,0,4.88944022247984,0,0,0.00566868694132904,0.0185804882814078,0,33.7286873009078,9.51090064373845,0,0
"42087",1980,87,4.00132555924354,0,12.1304018986137,0.274977823268684,36.2906579504365,0,0,0,0,0,0,4.911382761063,0,0,0.00667119034424079,0.021866434907613,0,39.6935825482327,11.3036333360416,0,0
"42088",1980,88,4.73217102275554,0,13.1245356448729,0.257532296273572,40.6885336250733,0,0,0,0,0,0,4.93522692434333,0,0,0.00771562649986923,0.0252898262416532,0,45.9079776742219,13.208818781942,0,0
"42089",1980,89,5.51882872353679,0,14.1907496224479,0.239542001892739,45.3405949440159,0,0,0,0,0,0,4.96093996957064,0,0,0.00879267701872174,0.0288201190151207,0,52.3164282613944,15.2163136867514,0,0
"42090",1980,90,6.36005961655368,0,15.3267439090263,0.221162587950676,50.233686620032,0,0,0,0,0,0,4.9884891539947,0,0,0.00989302351130575,0.0324267699596076,0,58.8634898922692,17.3159747557814,0,0
"42091",1980,91,7.25462465677258,0,16.5302185822952,0.202549702271876,55.3546533658891,0,0,0,0,0,0,5.0178417348653,0,0,0.0110073475881287,0.0360792358067063,0,65.4937181493655,19.4976586943436,0,0
"42092",1980,92,8.20128479915987,0,17.7988737199421,0.18385899268083,60.6903398943547,0,0,0,0,0,0,5.04896496943224,0,0,0.0121263308596978,0.0397469732880089,0,72.1516686152022,21.7512222077497,0,0
"42093",1980,93,9.19880099868191,0,19.1304093996542,0.16524610700203,66.2275909181965,0,0,0,0,0,0,5.08182611494531,0,0,0.0132406549365207,0.0433994391351075,0,78.7818968722985,24.0665220013113,0,0
"42094",1980,94,10.2459342103051,0,20.522525699119,0.146866693059968,71.953251150182,0,0,0,0,0,0,5.11639242865428,0,0,0.0143410014291048,0.0470060900795945,0,85.3289585031733,26.4334147803401,0,0
"42095",1980,95,11.3414453889958,0,21.9729226960238,0.128876398679134,77.8541653030789,0,0,0,0,0,0,5.15263116780896,0,0,0.0154180519479573,0.050536382853062,0,91.7374090903458,28.8417572501477,0,0
"42096",1980,96,12.4840954897203,0,23.4793004680559,0.111430871684022,83.9171780896547,0,0,0,0,0,0,5.19050958965912,0,0,0.0164624881035857,0.0539597741871022,0,97.951804216335,31.2814061160456,0,0
"42097",1980,97,13.6726454674451,0,25.0393590929026,0.0946857598991224,90.1291342226769,0,0,0,0,0,0,5.22999495145456,0,0,0.0174649915064975,0.0572457208133073,0,103.91669946366,33.7422180833457,0,0
"42098",1980,98,14.9058562771366,0,26.6507986482514,0.0787967111489272,96.4768784149132,0,0,0,0,0,0,5.27105451044506,0,0,0.0184162437671999,0.0603636794632696,0,109.57665041484,36.2140498573594,0,0
"42099",1980,99,16.182488873761,0,28.3113192117894,0.0639193732579281,102.947255379131,0,0,0,0,0,0,5.31365552388042,0,0,0.0193069264962005,0.0632831068685812,0,114.876212652393,38.6867581433985,0,0
"42100",1980,100,17.5013042122848,0,30.0186208612042,0.0502093940506169,109.527109828098,0,0,0,0,0,0,5.35776524901042,0,0,0.0201277213040067,0.0659734597608344,0,119.75994175884,41.1501996467746,0,0
"42101",1980,101,18.8610632476744,0,31.7704036741829,0.0378224213514851,116.203286474582,0,0,0,0,0,0,5.40335094308484,0,0,0.0208693098011258,0.0684041948716213,0,124.172393316698,43.5942310727993,0,0
"42102",1980,102,20.2605269348961,0,33.5643677284131,0.0269141029850245,122.96263003135,0,0,0,0,0,0,5.45037986335349,0,0,0.0215223735980652,0.0705447689325342,0,128.058122908488,46.0087091267842,0,0
"42103",1980,103,21.6984562289162,0,35.3982131015819,0.0176400867757269,129.791985211171,0,0,0,0,0,0,5.49881926706615,0,0,0.0220775943053323,0.0723646386751652,0,131.361686116727,48.3834905140411,0,0
"42104",1980,104,23.1736120847013,0,37.2696398713767,0.010156020548084,136.67819672681,0,0,0,0,0,0,5.5486364114726,0,0,0.0225256535334346,0.0738332608311066,0,134.027638523936,50.7084319398814,0,0
"42105",1980,105,24.6847554572176,0,39.176348115485,0.00461755212658738,143.608109291037,0,0,0,0,0,0,5.59979855382264,0,0,0.0228572328928795,0.0749200921319507,0,136.000535712633,52.973390109617,0,0
"42106",1980,106,26.2306473014315,0,41.116037911594,0.00118032933572876,150.568567616619,0,0,0,0,0,0,5.65227295136604,0,0,0.0230630139941743,0.0755945893092894,0,137.224933265337,55.1682217285593,0,0
"42107",1980,107,27.8100485723094,0,43.086409337391,0,157.546416416323,0,0,0,0,0,0,5.70602686135261,0,0,0.0231336784478265,0.0758262090947152,0,137.645386764568,57.2827835020201,0,0
"42108",1980,108,29.9805033419386,0.0590704403117519,45.1857907836231,0.0105145007998964,165.124572899777,0,0,0,0,0,0.000352842359124903,5.78560899066814,0,0.0011402460837396,0.0230582797921447,0.0755790718206287,0,137.196764763261,59.4480422481989,0,0.145117932104461
"42109",1980,109,33.2457173927396,0.230911721218666,47.5176054797328,0.0416137895729792,173.838449698116,0,0,0,0,0,0.00140513111078397,5.91321662410251,0,0.00445732560007299,0.0228389382483431,0.0748601270232862,0,135.891682577641,61.7900242160365,0,0.56727918913562
"42110",1980,110,37.523694245178,0.507468782678232,50.0871957614512,0.0926315458793384,183.603634656362,0,0,0,0,0,0.00314750876640372,6.0852898857616,0,0.00979575044667203,0.0224859354512874,0.0737030752400631,0,133.79131593516,64.2911752569561,0,1.24669496217014
"42111",1980,111,42.7324374197199,0.880686564647937,52.899903964509,0.162901449279064,194.335715619539,0,0,0,0,0,0.00557061783741069,6.29826889975132,0,0.0170000325212086,0.0220095530358432,0.0721416170083349,0,130.956840563267,66.9339412223809,0,2.16357644228469
"42112",1980,112,48.7899504368309,1.34251000708527,55.9610724246371,0.251757179332247,205.950280432668,0,0,0,0,0,0.00866510083523142,6.54859379017756,0,0.0259146837213546,0.0214200726368764,0.070209452865477,0,127.449432189415,69.7007679637341,0,3.29813482055593
"42113",1980,113,55.6142368169769,1.88488404994772,59.2760434775665,0.358532415598976,218.362916940775,0,0,0,0,0,0.0124216002712924,6.83270468114623,0,0.0363842159447818,0.0207277758892525,0.0679402833488648,0,123.330266541053,72.5741013324388,0,4.63058128806052
"42114",1980,114,63.1233000806238,2.49975363319277,62.850159459028,0.482560837639342,231.489212988881,0,0,0,0,0,0.0168307586570202,7.14704169676321,0,0.0482531410891622,0.0199429444278374,0.0653678089958737,0,118.660519345633,75.5363871799183,0,6.14112703587514
"42115",1980,115,71.2351437482374,3.17906369677792,66.6887627047526,0.623176125013435,245.24475642201,0,0,0,0,0,0.0218832185038414,7.48804496113442,0,0.0613659710521676,0.0190758598874966,0.0625257303438792,0,113.501366330605,78.5700713575959,0,7.80998325507644
"42116",1980,116,79.8677713402835,3.91475918066065,70.797195550471,0.779711957281345,259.545135085186,0,0,0,0,0,0.0275696223231824,7.85215459836574,0,0.0755672177314699,0.018136803903096,0.0594477479302567,0,107.913983223421,81.6575997168946,0,9.61736113674109
"42117",1980,117,88.939186377228,4.69878502479844,75.1808003319143,0.951502014003163,274.305936823431,0,0,0,0,0,0.0338806126264699,8.23581073256307,0,0.090701393024741,0.0171360581095011,0.0561675622923816,0,101.959545751532,84.7814181092378,0,11.5434718719458
"42118",1980,118,98.3673923795367,5.5230861691488,79.8449193848132,1.13787997473898,289.442749481769,0,0,0,0,0,0.0408068319251302,8.63545348783231,0,0.106613008829653,0.0160839041415777,0.0527188739676294,0,95.6992296423876,87.9239723860485,0,13.5685266517671
"42119",1980,119,108.070392867675,6.3796075536692,84.7948950448987,1.33817951904888,304.871160905222,0,0,0,0,0,0.0483389227305901,9.04752298827935,0,0.123146577043877,0.0149906236341916,0.0491353834933754,0,89.1942106234399,91.0677083987501,0,15.6727366672818
"42120",1980,120,117.96619136211,7.26029411831714,90.0360696479017,1.55173432649296,320.506758938815,0,0,0,0,0,0.0564675275542759,9.4684593580101,0,0.140146609565086,0.0138664982222083,0.0454507914069952,0,82.5056644221394,94.1950719987658,0,17.8363131095665
"42121",1980,121,127.972791383306,8.1570908030501,95.573785529553,1.77787807663131,336.265131427569,0,0,0,0,0,0.0651832889076142,9.89470272113046,0,0.15745761829095,0.0127218095404936,0.0416987982458641,0,75.6947667659371,97.2885090375186,0,20.0394671696978
"42122",1980,122,138.00819645173,9.06194254782557,101.413385025584,2.01594444902401,352.06186621651,0,0,0,0,0,0.0744768493020316,10.3226932017463,0,0.174924115119143,0.0115668392239133,0.0379131045473576,0,68.8226933822838,100.330465366432,0,22.2624100387525
"42123",1980,123,147.990410087848,9.96679429260104,107.560210471724,2.26526712323117,367.812551150658,0,0,0,0,0,0.0843388512489546,10.7488709239636,0,0.192390611947336,0.0104118689073329,0.0341274108488511,0,61.9506199986306,103.303386836929,0,24.4853529078072
"42124",1980,124,157.837435812124,10.863590977334,114.019604203706,2.52517977881286,383.432774075039,0,0,0,0,0,0.0947599372598097,11.1696760118881,0,0.209701620673201,0.0092671802256182,0.03037541768772,0,55.1397223424283,106.189719300433,0,26.6885069679386
"42125",1980,125,167.467277145025,11.7442775419819,120.796908557259,2.79501609532918,398.838122834675,0,0,0,0,0,0.105730749846023,11.5815485896259,0,0.22670165319441,0.00814305481363493,0.0266908256013397,0,48.4511761411278,108.971908608367,0,28.8520834102233
"42126",1980,126,176.797937607018,12.6007989265023,127.897465868116,3.07410975234022,413.944185274588,0,0,0,0,0,0.117241931519022,11.9809287812827,0,0.243235221408634,0.00704977430624876,0.0231073351270858,0,41.9461571221801,111.632400612154,0,30.9562934257379
"42127",1980,127,185.747420718567,13.4251000708527,135.326618472006,3.36179442940607,428.666549239803,0,0,0,0,0,0.129284124790233,12.3642567109645,0,0.259146837213546,0.00599762033832539,0.0196586468023335,0,35.685841013036,114.153641163217,0,32.9813482055593
"42128",1980,128,194.233730000139,14.2091259149905,143.08970870466,3.65740380608681,442.920802575343,0,0,0,0,0,0.141847972171082,12.7279725027772,0,0.274281012506817,0.00499687454473052,0.0163784611644585,0,29.7314035411466,116.518076112981,0,34.907458940764
"42129",1980,129,202.174868972199,14.9448213988732,151.19207890181,3.96027156194254,456.622533126231,0,0,0,0,0,0.154924116172996,13.0685162808267,0,0.288482259186119,0.00405781856032986,0.013300478750836,0,24.1440204339627,118.708151312867,0,36.7148368224286
"42130",1980,130,209.488841155213,15.6241314624584,159.639071399187,4.26973137653336,469.687328737489,0,0,0,0,0,0.1685031993074,13.3823281692188,0,0.301595089149125,0.00319073401998911,0.0104584000988414,0,18.9848674189352,120.706312614299,0,38.3836930416299
"42131",1980,131,216.093650069647,16.2390010457034,168.43602853252,4.58511692941934,482.030777254142,0,0,0,0,0,0.182575864085723,13.6658482920596,0,0.313464014293505,0.00240590255857396,0.00788592574585036,0,14.315120223515,122.495005868701,0,39.8942387894445
"42132",1980,132,221.907299235967,16.7813750885659,177.588292637542,4.90576190016058,493.568466521212,0,0,0,0,0,0.19713275301939,13.9155167734548,0,0.323933546516932,0.00171360581095011,0.00561675622923813,0,10.1959545751531,124.056676927495,0,41.2266852569491
"42133",1980,133,226.847792174639,17.2431985310032,187.101206049983,5.23099996831717,504.215984383722,0,0,0,0,0,0.212164508619828,14.1277737375104,0,0.332848197717078,0.00112412541198327,0.00368459208638021,0,6.68854620130043,125.373771642104,0,42.3612436352203
"42134",1980,134,230.833132406129,17.6164163129729,196.980111105573,5.5601648134492,513.888918686696,0,0,0,0,0,0.227661773398464,14.2990593083322,0,0.340052479791615,0.000647742996539143,0.00212313385465202,0,3.85407082940785,126.428735863953,0,43.2781251153349
"42135",1980,135,233.781323450902,17.8929733744325,207.230350140045,5.89259011511676,522.502857275157,0,0,0,0,0,0.243615189866723,14.4258136100263,0,0.345390904638214,0.000294740199483418,0.000966082071428939,0,1.75370418692631,127.204015444464,0,43.9575408883694
"42136",1980,136,235.610368829424,18.0648146553394,217.857265489128,6.22760955287994,529.973387994129,0,0,0,0,0,0.260015400536033,14.5044767666984,0,0.348707984154547,0.0000753986556818048,0.000247137274086442,0,0.448622001306717,127.68205623506,0,44.3797021454006
"42137",1980,137,236.238272062161,18.1238850956511,228.866199488554,6.56455680629883,536.216098688633,0,0,0,0,0,0.27685304791782,14.5314889024544,0,0.349848230238287,0,0,0,0,127.845304087165,0,44.524820077505
"42138",1980,138,235.647920905963,18.0685236259555,245.177371541744,6.95174547104995,541.68277301097,0,0,0,0,0,0.304133699100375,14.5036438691259,0,0.348779579002958,0.000335656154847874,0,0,0,127.454786055815,0.652131957990155,44.388813947229
"42139",1980,139,233.928766440113,17.9073061592592,271.242373919633,7.43310292057095,546.890663551538,0,0,0,0,0,0.350945866577135,14.4225566841582,0,0.345667572658319,0.00131311638599828,0,0,0,126.31756321727,2.55119754993951,43.9927521392824
"42140",1980,140,231.158657168723,17.6475331091487,306.36360825922,8.00138350106362,551.853561562509,0,0,0,0,0,0.415904610967241,14.2918992200781,0,0.340653132246391,0.00288811834336138,0,0,0,124.485132454784,5.61120135281638,43.3545695279872
"42141",1980,141,227.415441595909,17.2965048892101,349.843476197504,8.64934155872973,556.585258296055,0,0,0,0,0,0.497624992889836,14.1153433494125,0,0.333877178809195,0.00501639967684735,0,0,0,122.008990651612,9.74614794358912,42.4922009876656
"42142",1980,142,222.776968225784,16.8615219130297,400.984379371485,9.36973143977106,561.099545004349,0,0,0,0,0,0.594722072964063,13.8965609446883,0,0.325480633388754,0.00765369803636636,0,0,0,118.940634691009,14.8700418992261,41.4235813926397
"42143",1980,143,217.321085562462,16.3498845941937,459.088719418162,10.1553074903894,565.410212939564,0,0,0,0,0,0.705810911809063,13.6392238784323,0,0.315604417027087,0.0107557510718286,0,0,0,115.33156145623,20.8968877966955,40.1666456172316
"42144",1980,144,211.125642110057,15.7688933462884,523.458897974533,10.9988240567865,569.531053353871,0,0,0,0,0,0.82950657004398,13.3470040231712,0,0.304389450766218,0.0142782964331442,0,0,0,111.23326783053,27.7406902129658,38.7393285357635
"42145",1980,145,204.268486372683,15.1258485829,593.397316677599,11.8930354851642,573.475857499444,0,0,0,0,0,0.964424108287955,13.0235732514321,0,0.291976655648166,0.0181770717702233,0,0,0,106.697250697163,35.3154537250053,37.1595650225574
"42146",1980,146,196.827466854454,14.4280507176148,668.206377164359,12.8306961217242,577.258416628454,0,0,0,0,0,1.10917858716013,12.6726034357416,0,0.278506952714955,0.0224078147329762,0,0,0,101.775006939384,43.5351829097823,35.4452899519355
"42147",1980,147,188.880432059485,13.682800164019,747.188481071812,13.8045603126684,580.892521993074,0,0,0,0,0,1.26238506727965,12.2977664486267,0,0.264121263008604,0.026926262971313,0,0,0,96.5180334404492,52.3138823442651,33.6144381982198
"42148",1980,148,180.505230491888,12.8973973356988,829.646030036956,14.8073824041984,584.391964845476,0,0,0,0,0,1.42265860926565,11.9027341626141,0,0.248960507571135,0.0316881541351438,0,0,0,90.9778270836122,61.5655566054222,31.6849446357325
"42149",1980,149,171.779710655779,12.0791426462406,914.881425696792,15.8319167425162,587.770536437833,0,0,0,0,0,1.58861427373729,11.4911784502308,0,0.23316560744457,0.0366492258743789,0,0,0,85.2058847521283,71.2042102702217,29.6747441387957
"42150",1980,150,162.78172105527,11.2353365092305,1002.19706968832,16.8709176738234,591.042028022317,0,0,0,0,0,1.75886712131369,11.0667711840035,0,0.21687748367093,0.0417652158389283,0,0,0,79.2537033292524,81.1438479156321,27.6017715817315
"42151",1980,151,153.589110194477,10.3732793382548,1090.89536364853,17.9171395443218,594.220230851101,0,0,0,0,0,1.93203221261401,10.6331842364591,0,0.200237057292237,0.0469918616787024,0,0,0,73.1727796982393,91.2984741186216,25.483961838862
"42152",1980,152,144.279726577512,9.50027154689968,1180.27870921444,18.9633367002133,597.318936176356,0,0,0,0,0,2.10672460825738,10.1940894801245,0,0.183385249350511,0.0522849010436112,0,0,0,67.0146107423438,101.582093456159,23.3392497845094
"42153",1980,153,134.931418708491,8.62361354875147,1269.64950802303,20.0022634876996,600.351935250256,0,0,0,0,0,2.28155936886295,9.75315878752645,0,0.166462980887775,0.0576000715835649,0,0,0,60.8306933448209,111.908710505212,21.1855702929957
"42154",1980,154,125.622035091526,7.75060575739638,1358.31016171131,21.0266742529824,603.333019324973,0,0,0,0,0,2.45515155504986,9.31406403119182,0,0.14961117294605,0.0628931109484737,0,0,0,54.6725243889255,122.192329842749,19.040858238643
"42155",1980,155,116.429424230733,6.88854858642066,1445.56307191628,22.0293233422637,606.275979652679,0,0,0,0,0,2.62611622743725,8.88047708364744,0,0.132970746567357,0.0681197567882477,0,0,0,48.5916007579123,132.346956045738,16.9230484957735
"42156",1980,156,107.431434630224,6.04474244941055,1530.71064027494,23.002965101745,609.194607485546,0,0,0,0,0,2.79306844664426,8.45606981742017,0,0.116682622793717,0.0732357467527972,0,0,0,42.6394193350364,142.286593691149,14.8500759387093
"42157",1980,157,98.7059147941149,5.2264877599523,1613.05526842428,23.9403538776283,612.102694075748,0,0,0,0,0,2.95462327329005,8.04451410503684,0,0.100887722667152,0.0781968184920322,0,0,0,36.8674770035525,151.925247355948,12.8398754417725
"42158",1980,158,90.3307132265184,4.44108493163215,1691.8993580013,24.8342440161154,615.014030675455,0,0,0,0,0,3.10939576799374,7.64948181902428,0,0.0857269672296833,0.0829587096558631,0,0,0,31.3272706467155,161.176921617105,10.9103818792852
"42159",1980,159,82.3836784315487,3.69583437803635,1766.54531064301,25.6773898634079,617.942408536842,0,0,0,0,0,3.25600099137448,7.27464483190935,0,0.0713412775233324,0.0874771578941998,0,0,0,26.0702971477804,169.955621051588,9.07953012556957
"42160",1980,160,74.94265891332,2.99803651275113,1836.2955279864,26.4625457657076,620.901618912079,0,0,0,0,0,3.39305400405142,6.92367501621888,0,0.0578715745901204,0.0917079008569527,0,0,0,21.1480533900019,178.175350236365,7.36525505494762
"42161",1980,161,68.0855031759462,2.35499174936275,1900.45241166847,27.1824660692164,623.90545305334,0,0,0,0,0,3.5191698666437,6.60024424447971,0,0.0454587794720691,0.0956066761940319,0,0,0,16.612036256635,185.750113748404,5.78549154174153
"42162",1980,162,61.8900597235413,1.77400050145745,1958.31836332623,27.8299051201361,626.967702212798,0,0,0,0,0,3.63296363977045,6.30802438921869,0,0.0342438132111996,0.0991292215553475,0,0,0,12.5137426309346,192.593916164675,4.35817446027339
"42163",1980,163,56.4341770602193,1.26236318262147,2009.19578459666,28.3976172646683,630.102157642623,0,0,0,0,0,3.73305038405083,6.05068732296264,0,0.0243675968495333,0.10223127459081,0,0,0,8.90466939615541,198.620762062144,3.10123868486532
"42164",1980,164,51.7957036900941,0.827380206441063,2052.38707711678,28.8783568490149,633.322610594989,0,0,0,0,0,3.81804516010397,5.83190491823842,0,0.0159710514290918,0.104868572950329,0,0,0,5.83631343555247,203.744656017781,2.03261908983943
"42165",1980,165,48.0524881172799,0.476351986502468,2087.19464252357,29.2648782193777,636.642852322069,0,0,0,0,0,3.88656302854902,5.65534904757285,0,0.00919509799189627,0.106996854283815,0,0,0,3.36017163238057,207.879602608554,1.17025054951784
"42166",1980,166,45.2823788458904,0.216578936391929,2112.92088245405,29.5499357219585,640.076674076034,0,0,0,0,0,3.93721905000511,5.52469158349279,0,0.00418065757996811,0.108571856241178,0,0,0,1.5277408698946,210.939606411431,0.532067938222667
"42167",1980,167,43.5632243800399,0.0553614696956934,2128.8681985452,29.726283702959,643.637867109057,0,0,0,0,0,3.9686282850914,5.44360439852507,0,0.00106865123532895,0.109549316472328,0,0,0,0.390518031349444,212.83867200338,0.136006130276009
"42168",1980,168,42.9728732238421,0,2134.33899243403,29.786676508581,647.34022267331,0,0,0,0,0,3.97940579442702,5.41575936519653,0,0,0.109884972627176,0,0,0,0,213.49080396137,0
"42169",1980,169,43.7927549347693,0.397593300202109,2128.41325340213,29.7161065335904,651.260240882073,0,0.0960845029818826,0,0.00529054671670362,1.94339710069738,3.96643587924518,5.43392830240397,1.90457280051421,0,0.109526829012687,0,0,19.7784485823495,1.96308837600373,213.075783221766,0
"42170",1980,170,46.2064936729076,1.55422835533552,2111.15805481041,29.5107442329968,655.446551026565,0,0.375603057110996,0,0.0210181994616169,7.59691593908976,3.92870521689802,5.48678339246197,7.4451482201919,0,0.10848495667963,0,0,77.3157535491846,7.72959038626726,211.864593354795,0
"42171",1980,171,50.1452298462921,3.41568789719085,2083.35642441479,29.1801110433673,659.871138125866,0,0.825453230162537,0,0.0469669771269436,16.6955478196275,3.86798243218306,5.57184705302407,16.3620117862357,0,0.106808193393615,0,0,169.914853730185,17.1153613541691,209.908042888219,0
