"year","assimilated_weight","ingested_weight","Weight","Length","JulianDay","feeding_hours","Metabolism","percentage_partic","metaConst","assimilation","gape_size"
1979,1.40185083886334,0.778509194076465,6,10.2186114170614,141,24,0.0446789020239685,96.202597934634,0.00971357696872873,1.80068629828622,0.000118096259579378
1979,1.45455768758083,0.807564586595765,6.40715158105181,10.4239522753297,142,24,0.0471793751325147,95.8865623290453,0.00978315838007488,1.8011657664589,0.000122890186172919
1979,1.49904234446214,0.832046785797727,6.8293650747863,10.6274972036893,143,24,0.0497534078496655,95.5089228424232,0.00985133759076123,1.80163227603232,0.000127736311745327
1979,1.5351508236728,0.851835181596626,7.26415175577005,10.8281334398053,144,24,0.0524527013860337,95.068329314422,0.00993034325673095,1.802168843033,0.000132604899805442
1979,1.56341950812299,0.867166077587377,7.70896119245608,11.0249111816549,145,24,0.0553824344366746,94.5646379701393,0.01004001921363,1.80290667327847,0.000137468303254493
1979,1.58459102077579,0.878440457100736,8.16137231456197,11.2170937916878,146,24,0.0585788075601696,93.9990795856798,0.0101848038246336,1.80386844431742,0.000142302678909549
1979,1.59986441277499,0.88632150213346,8.61917597852666,11.4041506143218,147,24,0.0620723264701321,93.3730961530972,0.0103672397577222,1.80506104040572,0.000147088345277644
1979,1.6101753773634,0.891329077607677,9.08051360441811,11.5857716434266,148,24,0.0658971329294745,92.6897186422952,0.0105898432005292,1.80648810614942,0.000151810671750875
1979,1.61624827722009,0.894000795432207,9.54379707774829,11.7617971881014,149,24,0.0698118151963154,91.9526448483642,0.0108119454620618,1.80788237043873,0.00015645871044387
1979,1.61883878579474,0.894827571456963,10.0077280163554,11.9321977764188,150,24,0.0736581559729068,91.1662723880331,0.0110108578245004,1.80910695806896,0.000161024982207471
1979,1.71216602833251,0.945799593599358,10.471282205302,12.097046311615,151,24,0.0773078265656088,90.5797225111012,0.0112055231993505,1.81028416582064,0.000165504977677981
1979,1.71030201333642,0.944112038426515,10.961739665832,12.2660144054464,152,24,0.0815494286702285,89.7091075713384,0.0114179385143617,1.81154560446752,0.000170160719892905
1979,1.70695772968889,0.941522144808434,11.4503654412319,12.4291898892176,153,24,0.0861121016118079,88.8039723879694,0.0116638055002398,1.81297671977348,0.000174718148831516
1979,1.70224887183607,0.938331695408856,11.936619129655,12.5868238144272,154,24,0.090416714794869,87.8719602541092,0.0118645058542741,1.81412274589569,0.000179177997983462
1979,1.69641911648928,0.934783454940379,12.4201687767674,12.7392031257636,155,24,0.0941124271565493,86.9192606988508,0.0119797892996459,1.81477229568368,0.000183542607994507
1979,1.69024517784404,0.931069972266469,12.9008607835672,12.8866369394294,156,24,0.0977763574860557,85.9514436711933,0.0120885385003229,1.81537932506785,0.000187815555765054
1979,1.68441755879908,0.927353842971351,13.3786014296746,13.0294191645925,157,24,0.102046615362771,84.9750969952176,0.0122681142408984,1.81636984799891,0.000192000555460934
1979,1.67952558144715,0.923766122202895,13.8533127127055,13.1678181467165,158,24,0.107611717986197,83.9968448080651,0.0125935586750036,1.81812857289246,0.000196101092732498
1979,1.67531471704404,0.920410906715424,14.3248868717438,13.3020673468452,159,24,0.11386169981901,83.0233267939456,0.012984340947161,1.82018129600676,0.000200120075489022
1979,1.67142854630527,0.917369055896908,14.7933227769113,13.4324072065553,160,24,0.119905552270862,82.0610255170917,0.0133368229255055,1.821980516523,0.000204061028670264
1979,1.66813243482859,0.914701222743676,15.2587796751216,13.559099248587,161,24,0.125990205090806,81.1161733465141,0.0136807996458038,1.82369105162554,0.000207928515414304
1979,1.66565517664242,0.912450541457422,15.7214223440429,13.6823834889972,162,24,0.132415490307388,80.1948721472567,0.0140488847184051,1.82547447884893,0.000211726827797867
1979,1.66414267242164,0.910645047781494,16.1813942499435,13.802474130096,163,24,0.139420367751392,79.3031167015807,0.0144644944426604,1.82743284716236,0.000215459802340884
1979,1.66300938226798,0.909299898674553,16.6388109413445,13.9195607912707,164,24,0.145594586519352,78.4468130333684,0.0147816661727746,1.82888987966685,0.000219130806712058
1979,1.66196422522957,0.908419671921913,17.0940353800691,14.0338796429735,165,24,0.150057348330523,77.6315377784442,0.0149190875287049,1.82951148747518,0.000222744951060394
1979,1.66153286369202,0.907999390251442,17.5476074431388,14.1456922591216,166,24,0.153982337459331,76.8626178536231,0.0150018814983337,1.8298832372915,0.000226308457710687
1979,1.66221489234561,0.908032503282124,17.9998726010086,14.2551946388701,167,24,0.158649876349977,76.1456509478875,0.0151555051664736,1.83056761331501,0.000229825744924886
1979,1.66413983440842,0.908323305553823,18.4509421058073,14.3625138017257,168,24,0.165449251429886,75.4457542515785,0.0155053924024595,1.83210077759016,0.000233299222540753
1979,1.66681027556492,0.90871474246187,18.9005492807009,14.4676804335505,169,24,0.174048818515463,74.7257954298441,0.01600958012875,1.83425028524269,0.000236728304826617
1979,1.66974237144848,0.909246341931474,19.3483777178157,14.5707117053946,170,24,0.183018766041075,73.9880939303899,0.0165308600738262,1.83640262758881,0.000240112021567846
1979,1.67281875923578,0.909952984960353,19.7943947994379,14.6716872109201,171,24,0.191800834974745,73.2347516894438,0.0170189709324261,1.83835735129619,0.000243451521253358
1979,1.67590412031434,0.910865440878868,20.2387001767163,14.7707106109566,172,24,0.199700232255495,72.4677903426004,0.0174151333432702,1.83990306921438,0.000246748858618846
1979,1.67890559698948,0.912010996502325,20.6815613431339,14.8679156387894,173,24,0.206100054620426,71.6891078427609,0.0176710658593584,1.84088306328354,0.000250007219421479
1979,1.68200753555992,0.913413915208853,21.1234030058446,14.9634617157256,174,24,0.211329277912944,70.9004787700134,0.0178212695384184,1.84145162182615,0.0002532308000636
1979,1.68539325071594,0.91509515768959,21.5646064831387,15.0574897983406,175,24,0.215807328211925,70.1037325727489,0.0179054828930233,1.84176829759561,0.00025642332579843
1979,1.68888899259364,0.917072236204076,22.0054822598899,15.1501180891751,176,24,0.218756970884567,69.3007668415183,0.0178632189004637,1.84160955475465,0.000259587878693886
1979,1.69231683017257,0.919360121737081,22.4465218664026,15.2414955336291,177,24,0.219398666851464,68.4933021176701,0.0176374342462055,1.84075509711584,0.000262728713830464
1979,1.69559798976617,0.921971590424789,22.888397315399,15.3317997082492,178,24,0.217379000744035,67.6828780468556,0.01720818227376,1.83910004101638,0.000265851213860609
1979,1.69946256414721,0.924917100676367,23.3318630121056,15.4212153522203,179,24,0.215253610608919,66.870941903173,0.0167835077837227,1.83742149745576,0.000268961165123243
1979,1.70460646821103,0.928201454290621,23.7771256981671,15.5098094184261,180,24,0.21539545160522,66.0594206969113,0.0165454163711946,1.83646175119794,0.000272060377353538
1979,1.71086409302774,0.931822789446896,24.2238890031488,15.5975473996161,181,24,0.217223002700217,65.2506628233161,0.016441907430035,1.83604019176571,0.000275147139185643
1979,1.71805090932219,0.935775481046513,24.6719813302471,15.6844207353312,182,24,0.220149068144561,64.4468580966488,0.0164234813416046,1.8359648699075,0.000278220637224898
1979,1.7259886357057,0.940050425280025,25.1213518826004,15.7704444130722,183,24,0.223630985099984,63.6500465367258,0.0164466659045473,1.83605962966461,0.000281280896387839
1979,1.73493087023984,0.944635330984432,25.5720591777821,15.8556533475537,184,24,0.228680111754555,62.8621377105054,0.0165830628309066,1.8366144196955,0.000284328672895028
1979,1.74507330131388,0.94951243973028,26.0239344053277,15.9400386827012,185,24,0.236218399082701,62.085217314418,0.0168940551639007,1.83786249478689,0.000287363176339892
1979,1.75619685147014,0.954658268947321,26.476590875997,16.0235521433661,186,24,0.245763645699124,61.3215418687291,0.0173387652693307,1.83960785612495,0.000290382185401092
1979,1.76805600255206,0.960046036877788,26.9297208377283,16.1061621356227,187,24,0.256717718478655,60.5732909933127,0.0178704355183135,1.84163668682186,0.000293384054971221
1979,1.78037054006982,0.965646464844463,27.3831223229504,16.1878575592037,188,24,0.268270334322044,59.8425671606762,0.0184301823018084,1.84370844287882,0.000296367872137263
1979,1.79259589223226,0.971428967297786,27.8367523846747,16.2686560428317,189,24,0.278360285360596,59.131378915881,0.0188772803506812,1.84531854883709,0.000299333778603951
1979,1.80443584319376,0.977309856946171,28.2910230667362,16.3486541470506,190,24,0.286198267621698,58.4447503291338,0.0191634786433225,1.8463293195795,0.00030228485336958
1979,1.81612598609808,0.983276514978553,28.7464943394078,16.4279698246677,191,24,0.29277443114094,57.7830350267185,0.0193599517099701,1.84701450551546,0.000305225044960028
1979,1.82793983530658,0.989324563319073,29.203499805895,16.5066771670215,192,24,0.299290098325727,57.1465917856847,0.0195481837487012,1.84766446025968,0.000308156752435958
1979,1.84007288143071,0.995419577448556,29.6620947269892,16.5847999848287,193,24,0.306924857516523,56.5378378075252,0.0198046362142143,1.8485399756223,0.000311080544121288
1979,1.85251033035951,1.00152297649383,30.1220391341635,16.6623116674151,194,24,0.316000655647167,55.9595969136939,0.0201476028860731,1.84969329095659,0.000313995107205181
1979,1.86489320877645,1.00759391464308,30.5829920365772,16.7391700500351,195,24,0.325241525365232,55.4149415704438,0.0204939142050349,1.85083810221011,0.000316898523751143
1979,1.80555205433163,0.975107787046109,31.0448875416005,16.8153799470898,196,24,0.331915536712378,54.1285779024009,0.0207411307487827,1.85164356014547,0.000319790636149524
1979,1.8165194088123,0.98093492913303,31.4869784968863,16.8875855649369,197,24,0.336446025782879,53.6683986950464,0.0207970983529216,1.85182457557891,0.00032254290894824
1979,1.8263293226908,0.986610789024585,31.9310005117951,16.9593988165546,198,24,0.33649460203563,53.2496720286914,0.0205783475237908,1.85111428235688,0.000325291922912621
1979,1.83527189087007,0.992112130053396,32.3779509279917,17.0309861873215,199,24,0.333814608174673,52.8555734596233,0.0201986809086535,1.8498633725719,0.000328043900352796
1979,1.84368822159728,0.997315058414334,32.8283881128003,17.1024385537221,200,24,0.331321229373751,52.4739839524367,0.0198376160722101,1.84865174354093,0.000330802247069965
1979,1.85172312077339,1.00226276374328,33.2820982104674,17.1737226292862,201,24,0.329322897318994,52.1020055555239,0.0195127440183239,1.84754256843537,0.000333565604556342
1979,1.85944991992759,1.00695834247859,33.7388182775037,17.2447988139221,202,24,0.328125769118703,51.7391607291976,0.019241038679289,1.84660064025154,0.000336332346730629
1979,1.86698656187008,1.01140567156218,34.1982155227464,17.3156183133783,203,24,0.32823932506628,51.385050516504,0.0190505953604305,1.84593246247711,0.000339100462197185
1979,1.87470157802509,1.01560875682357,34.6598396937875,17.3861163369798,204,24,0.331391877716202,51.0393840917604,0.0190384254568637,1.84588953711706,0.000341867279607667
1979,1.8827298311397,1.01956770282849,35.1228326038802,17.4561690929866,205,24,0.338291245473537,50.7021722452115,0.0192397627744868,1.84659618573304,0.00034462775724697
1979,1.89085680350499,1.02328185641192,35.58616417958,17.5256317018001,206,24,0.348039288921081,50.3735501420935,0.0195980965692207,1.84783575674367,0.000347375940102364
1979,1.89889137220853,1.02675509464807,36.0490094339552,17.5943948705911,207,24,0.359805768100982,50.0535199137476,0.0200628806699607,1.84941022655397,0.000350107200396771
1979,1.90658655419249,1.02999580391999,36.5107351151874,17.6623813054898,208,24,0.372343542051308,49.7419703644072,0.0205624743273984,1.85106244795983,0.000352818123757992
1979,1.91351168186044,1.03301853566187,36.9710080188298,17.7295600003358,209,24,0.383171043831515,49.4386168222227,0.0209603483481709,1.85234980380524,0.000355507108392617
1979,1.91955935146292,1.03584860629573,37.4301102102385,17.7959896213458,210,24,0.391274757877582,49.1428135990806,0.0212043692649854,1.85312731976094,0.000358176147602489
1979,1.92445515130733,1.03820851246534,37.8885955883141,17.8617656384782,211,24,0.397840365029646,48.8636991670979,0.0213638602581361,1.85363068035101,0.00036082876092103
1979,1.85888159736315,1.00259424688857,38.3465800241974,17.9269182527986,212,24,0.402316937781943,47.7420707783703,0.0215045768957103,1.85407167768213,0.000363465881259204
1979,1.86344685559199,1.00474294004448,38.7835494220717,17.9885776266214,213,24,0.409263162974595,47.4803929853018,0.0216906341559746,1.85465036013041,0.000365970452275468
1979,1.86772146557451,1.00680702962985,39.219804529857,18.0496550778928,214,24,0.415444796764776,47.2244217580764,0.0218342929024047,1.8550937871989,0.000368459864194744
1979,1.87152124688589,1.00881920971871,39.6554875304999,18.1101816623594,215,24,0.419314271541833,46.9738598508421,0.021855890684774,1.85516020002012,0.000370935148007128
1979,1.87512124690132,1.01081975925883,40.0911496231031,18.1702436566757,216,24,0.422068769813306,46.7282182848787,0.0218200816291987,1.85505005192639,0.000373399623431237
1979,1.87880725430686,1.01284679141948,40.5270653662295,18.2298870333608,217,24,0.425037197230976,46.4872335348249,0.0217962853257625,1.85497675484932,0.0003758549967895
1979,1.88282550518438,1.01493566411879,40.9631963833523,18.2891140663903,218,24,0.429359077276322,46.2508774798641,0.0218421920531797,1.85511808457252,0.000378301192726727
1979,1.88706840690842,1.01711955387798,41.3992363117247,18.3478909835143,219,24,0.433989027530981,46.0193193378084,0.0219035074456144,1.85530638921804,0.000380736642296676
1979,1.89144021414937,1.01943721703584,41.8351601255379,18.4062225149138,220,24,0.437860983834237,45.792603587808,0.0219264954984508,1.85537685160152,0.000383161362906103
1979,1.89618605297569,1.02193309371508,42.2712338946325,18.4641517896285,221,24,0.44200802565308,45.5706519953072,0.0219632736136531,1.85548942943261,0.000385576979537777
1979,1.90154461538346,1.02464974604076,42.7074873028293,18.5216896449707,222,24,0.44747290106124,45.3535623419164,0.0220649313549157,1.85579962590244,0.000387983788094956
1979,1.90771948419947,1.02762771629616,43.1437088171259,18.5788151435893,223,24,0.455135744310228,45.1415996855083,0.0222731514541794,1.85643054770399,0.000390380755873007
1979,1.91376689475467,1.03049031105794,43.5794839390927,18.6354816412559,224,24,0.463401624739233,44.9464610716171,0.0225103254046298,1.8571420557947,0.000392765756852377
1979,1.91995013910063,1.03353691706708,44.0145935200973,18.6916689261153,225,24,0.470333413824722,44.7612482961383,0.0226812800485279,1.8576502758595,0.000395137759984743
1979,1.85941251719634,1.00074749947288,44.4494785376801,18.747441704558,226,24,0.474051856740231,43.6319081037452,0.0228077005433051,1.85802364550072,0.000397499326472792
1979,1.86725777870834,1.00480343087158,44.8650867358169,18.8003879981362,227,24,0.479508904913348,43.4558485180151,0.0229124379576556,1.85833141223319,0.000399747722329606
1979,1.87594131480553,1.00934224118896,45.2814113979554,18.8530839397929,228,24,0.48456005679082,43.2853557088712,0.022996712720986,1.85857803057539,0.000401991782878002
1979,1.88477247320792,1.01413336101702,45.6988257753598,18.905579887951,229,24,0.487329396067131,43.1238846842481,0.0229719101922796,1.85850554341077,0.000404233572090806
1979,1.89244753158312,1.01854135920414,46.1180586985021,18.9579692306964,230,24,0.486915532394518,42.9854289335178,0.0227989024376736,1.8579977283022,0.000406477023374713
1979,1.89948838420738,1.02267633105434,46.5397182982586,19.0103280711348,231,24,0.485617138930831,42.8657239383197,0.0225868566643262,1.85737004615046,0.000408725371284457
1979,1.90620840664539,1.02653406452598,46.9638796718416,19.0626650416237,232,24,0.485706319341875,42.7640441774082,0.0224414931306893,1.85693633803142,0.000410978977198831
1979,1.91290285145255,1.03010277441286,47.3900302980327,19.1149167371211,233,24,0.48939984878306,42.6799437261892,0.0224634206915793,1.85700194094019,0.000413235091907251
1979,1.91938768853908,1.03336344495033,47.8170811988335,19.1669513203515,234,24,0.495671334294311,42.6132434406075,0.0226029299164714,1.85741783098524,0.000415487969398658
1979,1.92447843487496,1.03585465910036,48.244196105107,19.2186707365135,235,24,0.50217772121622,42.5746628441416,0.022754002558906,1.857865307616,0.000417733270400191
1979,1.92841174295542,1.03772137760631,48.6708863192046,19.2700210467344,236,24,0.508706880191249,42.559924442222,0.0229063611169197,1.8583135941592,0.000419968533222953
1979,1.93165506872486,1.03924225426823,49.0967977780338,19.3209656793955,237,24,0.514920043145284,42.561501718866,0.0230436195935483,1.85871490578009,0.000422192030959356
1979,1.93414465862105,1.0404180097005,49.5218182857077,19.3714976067675,238,24,0.520323776338174,42.5787399652477,0.0231441378314076,1.85900728417593,0.000424403315429662
1979,1.86980714485487,1.00587214388543,49.9459645503926,19.421625147728,239,24,0.519944605865096,41.5207011571386,0.0231042680209103,1.85889146669503,0.000426602610570456
1979,1.8706901415274,1.00667523280573,50.3509233120895,19.4692089128402,240,24,0.518252898382979,41.5589672298805,0.0228968347710659,1.85828565217955,0.000428695558548451
1979,1.87081757794578,1.00717487443444,50.7566544850328,19.516616688955,241,24,0.515089715489329,41.6096447419255,0.0226273340610727,1.85749031814986,0.000430785858893872
1979,1.87049391665481,1.00737749743052,51.1633728437697,19.5638754599129,242,24,0.512692496909218,41.6720422136315,0.0223944618302617,1.85679541326445,0.000432874649090839
1979,1.86997078408931,1.00728270773814,51.5707132696934,19.6109447979646,243,24,0.51295296213431,41.7457604974057,0.0222798661849501,1.85645079551534,0.000434960088021995
1979,1.86919893552683,1.0068744096016,51.9778186162799,19.6577287800248,244,24,0.515718980457621,41.8309043901936,0.022275299947819,1.85643702700362,0.000437037849976555
1979,1.86628892910203,1.00528013416717,52.3838626028007,19.7041370889745,245,24,0.518857546052423,41.9493192871342,0.0222916890281093,1.85648643166331,0.000439103818946085
1979,1.86282201390275,1.00338159433523,52.7880920177156,19.750089627286,246,24,0.522040144280925,42.0789701487145,0.0223107800289533,1.85654393544753,0.000441154298367659
1979,1.85878767057765,1.00118693494755,53.1903265786021,19.7955725909188,247,24,0.525067604542327,42.2194502687228,0.0223240996242136,1.856584026114,0.000443188528022618
1979,1.85412717112027,0.998705652157805,53.5904425984127,19.8405787840506,248,24,0.527335966809004,42.3703428878575,0.0223062074560596,1.85653016693581,0.000445206040044821
1979,1.84894694580138,0.995949703734988,53.9884799597061,19.8851193823657,249,24,0.52949696271439,42.5311719290907,0.0222849707341573,1.85646618385196,0.000447207191498114
1979,1.84319217383228,0.992929556214171,54.3843149546322,19.9291871329174,250,24,0.53095682127926,42.7015446411055,0.0222355863424329,1.85631715996045,0.000449191514704713
1979,1.77461008942346,0.9562102266401,54.7779855603981,19.9727927587947,251,24,0.527542014497682,41.5871053581919,0.0220908853346655,1.85587859236669,0.000451159352706862
1979,1.76808091925352,0.953173400187418,55.1521059828758,20.0140309223756,252,24,0.522700569254981,41.7590411694779,0.021784856560146,1.85494152365758,0.000453024308742297
1979,1.7596004129391,0.949413217672498,55.5257200878754,20.0550191603086,253,24,0.512846670263943,41.9520379186644,0.0212765887631566,1.85335571507293,0.000454881773869009
1979,1.75042527208797,0.945349828152407,55.8997462106779,20.095860509576,254,24,0.502001447702669,42.1535426828574,0.0207327548580983,1.85161642807827,0.000456736362185674
1979,1.74074089338022,0.94086428376417,56.2742733579935,20.1365661671129,255,24,0.493353755288004,42.3693407099393,0.0202853217395641,1.85015089149302,0.000458588542979221
1979,1.7307758880585,0.936216753468459,56.6484894994212,20.1770498747765,256,24,0.484882845832235,42.5912829743188,0.019849339519271,1.84869142925117,0.000460434341989287
1979,1.7203433873064,0.931417224428923,57.0222574120891,20.21729945915,257,24,0.475018257779528,42.8189745204002,0.0193606519950099,1.84701693525282,0.000462273141546659
1979,1.70930512646514,0.926479358305824,57.3958549509471,20.2573473600474,258,24,0.462608105191782,43.051818585938,0.0187730984201547,1.84494679902077,0.000464106364130721
1979,1.6982106119734,0.921418884147097,57.7698640573292,20.2972578057146,259,24,0.451600619246257,43.2890598976644,0.0182473246269648,1.84303864527948,0.000465936903730841
1979,1.68653631566885,0.915711161356739,58.1438470551473,20.3369858015493,260,24,0.44510679454074,43.5547634734322,0.0179079657714627,1.84177761158883,0.00046776265331357
1979,1.67325344250932,0.908885264690249,58.5162759114857,20.3763721044583,261,24,0.441815739381989,43.8732352576989,0.0177005994774017,1.8409952361584,0.000469576224107161
1979,1.65834926880642,0.901036899549937,58.8857072224239,20.4152691674052,262,24,0.440326568234161,44.2443592340051,0.0175679268504159,1.8404898507872,0.000471370711298939
1979,1.64187597612543,0.892270164184356,59.2511140325956,20.4535755405836,263,24,0.439629799960575,44.6680019081792,0.0174690753841402,1.84011081175879,0.000473141292177807
1979,1.56233166776308,0.849106633350553,59.6117878854451,20.4912246195872,264,24,0.438221637280098,43.6463860142358,0.0174327802058461,1.8399711018605,0.0004748847260762
1979,1.54255722945801,0.838292514292495,59.94902089459,20.5262834652086,265,24,0.440734426312071,44.1863266090003,0.0174709711184129,1.84011810097088,0.00047651109571349
1979,1.52178517752379,0.826913454398508,60.2795677355337,20.5605140727994,266,24,0.443574841760388,44.7789064214545,0.0175235014263786,1.84031976917189,0.000478101726095091
1979,1.50005755175171,0.815090513012663,60.6030308362628,20.5938846885962,267,24,0.445293730529016,45.4240329390926,0.0175332230909057,1.84035702514476,0.00047965494567151
1979,1.47744346839633,0.80294769084056,60.9194599826296,20.6264097299945,268,24,0.444519017984505,46.1213535301756,0.017446658141505,1.84002455608246,0.000481171232355084
1979,1.45419145307369,0.790610172992829,61.2293373177531,20.6581474082994,269,24,0.441304992451454,46.8702018164687,0.0172666871528687,1.83932803137214,0.000482653119591711
1979,1.43049554098418,0.778128650635464,61.5332032559398,20.6891608711566,270,24,0.436424196689307,47.6729840606889,0.0170245122012875,1.83837921893245,0.000484103392974611
1979,1.40545195792704,0.765003630439639,61.8314246592283,20.7194946219302,271,24,0.429878383351923,48.5599983294618,0.0167241193292295,1.83718338319433,0.000485523985800789
1979,1.3807420789447,0.752140153575545,62.1240967316008,20.7491649396392,272,24,0.421915874012603,49.4959422277005,0.016371287458599,1.83575105301969,0.000486915522189455
1979,1.35659813110619,0.739646919614601,62.4117445930804,20.7782311392797,273,24,0.412829989640919,50.4787746644813,0.0159775694444525,1.83411583977535,0.000488280656322746
1979,1.33335094314995,0.727623813482905,62.69487503552,20.8067498257373,274,24,0.403875801749492,51.5059077414894,0.0155915340841327,1.8324729323627,0.000489621933080354
1979,1.31033057848804,0.715611532056785,62.9737175779401,20.834749007697,275,24,0.396388331161392,52.6110414313879,0.0152679341489798,1.83106408964922,0.000490940566472738
1979,1.22809490952826,0.671105311859571,63.2479002521381,20.8621961531931,276,24,0.389232674377432,51.7723606210841,0.0150187126432878,1.82995855914971,0.000492234922637249
1979,1.20741880400904,0.660065907811865,63.4995589226834,20.8873156315036,277,24,0.385880839254749,52.9315621903253,0.0148588595677258,1.82923976184691,0.000493421003750207
1979,1.18883445951105,0.649997537851212,63.7460203121097,20.9118491787895,278,24,0.385223697341596,54.0975346704757,0.0148021760860021,1.82898301959904,0.000494580796326946
1979,1.17169307316505,0.640595382808415,63.9871035407605,20.9357834875285,279,24,0.386490768136625,55.3039980304595,0.0148211060790942,1.82906887031915,0.000495713572634981
1979,1.15552989464979,0.631676594465893,64.222664232269,20.959108897737,280,24,0.38853403926032,56.5683295530287,0.0148735574751247,1.82930617466813,0.000496818777385004
1979,1.14121458165652,0.623734238965964,64.4527629888859,20.9818359621976,281,24,0.391195125874111,57.8395116340298,0.0149496084252971,1.82964876763611,0.000497896815031802
1979,1.12874097792957,0.616773008141659,64.6777688256206,21.0040053736595,282,24,0.39436288848921,59.1068951713216,0.015044811034625,1.83007518654306,0.000498949526605389
1979,1.11805026274779,0.610785766711706,64.8980822524527,21.0256604277359,283,24,0.397612616585177,60.3585105935072,0.0151428106915515,1.83051132439947,0.00049997888730416
1979,1.10887240709569,0.60575519488643,65.1142135463015,21.0468546812379,284,24,0.39859607519767,61.581090881115,0.0151542261044645,1.83056194392783,0.00050098737121302
1979,1.10104166905684,0.601656433746304,65.3272964458709,21.0677020584867,285,24,0.396062402495984,62.7599988295415,0.0150318467945746,1.83001727780261,0.000501980340996385
1979,1.09466344491751,0.598458471722362,65.5387902258392,21.0883471489306,286,24,0.391603883864564,63.8795278295919,0.0148364821621995,1.82913852279018,0.000502964644579498
1979,1.08982136637058,0.596125518911165,65.749708094155,21.1088898292015,287,24,0.386717955676145,64.9234293790435,0.0146250414466153,1.82817432201386,0.000503945022439773
1979,1.01027225306233,0.552857328298051,65.9606391173634,21.1293879082511,288,24,0.381108224524389,63.6787219223237,0.0144499394293702,1.82736521947246,0.000504924223192504
1979,1.0075053576236,0.551530428875423,66.1493883259248,21.1476916830818,289,24,0.378186346507009,64.5503946986101,0.0143170983790351,1.82674482653281,0.000505799404468406
1979,1.00551078367171,0.550620306677024,66.3381840292597,21.1659635883345,290,24,0.375397076222074,65.3783166478134,0.0141891562949608,1.82614184671091,0.000506673817762136
1979,1.0035101287776,0.54970991044484,66.5272181414946,21.1842222912652,291,24,0.372572244668159,66.2390453069304,0.0140598145108605,1.82552671820221,0.000507548353611557
1979,1.00149187956214,0.548818000594381,66.7164995067274,21.2024686814319,292,24,0.369254437400332,67.1312123877515,0.0139118448159825,1.82481602002395,0.000508423053043075
1979,0.999461931946383,0.547957666597574,66.906170739376,21.2207164984832,293,24,0.365277405967826,68.0531063027701,0.0137390683420862,1.82397654576553,0.000509298574036859
1979,0.997453358124884,0.54713609435458,67.0964260971696,21.2389843274175,294,24,0.360857611967292,69.0026900319884,0.0135497188856182,1.82304433653114,0.00051017580961949
1979,0.99552616030189,0.546354213280186,67.2874048210168,21.2572853393586,295,24,0.356577733554441,69.9776192061555,0.0133657183016135,1.82212589580847,0.000511055395576625
1979,0.993696187625266,0.545606245497652,67.4790893490411,21.2756176192985,296,24,0.352689018865069,70.9752517429517,0.0131964622104049,1.82126981834474,0.000511937243870736
1979,0.991965324456438,0.544879290938393,67.6713914996691,21.2939725327599,297,24,0.349423573337952,71.9925964424812,0.0130505746694012,1.82052307906229,0.000512820942504704
1979,0.99031171838339,0.544152659829862,67.8641540250047,21.3123349403147,298,24,0.346916676170084,73.026290556116,0.0129330149998816,1.81991523976567,0.000513705764465394
1979,0.988696018268672,0.543397029437356,68.0571725376687,21.3306853448395,299,24,0.345286627899981,74.0725717231928,0.0128480771271676,1.81947262260964,0.000514590769971942
1979,0.900725929943819,0.495138392001725,68.2501953547793,21.3489999200475,300,24,0.342383144171634,73.0823423990654,0.012784566586753,1.8191397485911,0.000515474806950508
1980,1.40659168767711,0.772319888118199,6,10.2186114170614,141,24,0.0607780307899359,95.2423496362511,0.0131936098600915,1.8212552976,0.000118096259579378
1980,1.45093611201167,0.796596135105866,6.40374409706615,10.4222720489262,142,24,0.0638633675235112,94.8322887828261,0.0132259939651343,1.8214199744,0.000122850572274337
1980,1.4929068584764,0.819682360845757,6.8198659204126,10.6230156118509,143,24,0.0667520330645974,94.3694246896038,0.0132070392986244,1.8213236368,0.000127628602225723
1980,1.5322427297755,0.841358506710426,7.24771236803614,10.8207018248527,144,24,0.0695995139441998,93.8540035017247,0.0131735702963412,1.8211531916,0.000132422942243508
1980,1.56878754416028,0.861459441098284,7.68650533278553,11.0151694457759,145,24,0.0725774990083672,93.2867679370089,0.0131594483053251,1.8210811436,0.000137225473498723
1980,1.60244596963803,0.879877848875371,8.1353683463311,11.2062513855898,146,24,0.0758139816651281,92.6690028247722,0.0131855262309722,1.8212141284,0.000142027713258106
1980,1.63306650177242,0.896509515715686,8.59335794272297,11.39378821487,147,24,0.0793696502420133,92.0029285307168,0.0132581335479059,1.8215830096,0.000146821162606703
1980,1.66093537473709,0.911484112102089,9.05946699818209,11.5776277179744,148,24,0.0833318127233893,91.2904434696521,0.0133868159195277,1.8222318444,0.000151597323808853
1980,1.68604975010163,0.924787430899115,9.5327480667862,11.7576692112953,149,24,0.0877655355646255,90.5349544953716,0.0135761940934501,1.8231754604,0.000156348906715614
1980,1.70834870664652,0.936506279674043,10.0122333311473,11.933825302772,150,24,0.0923935834361104,89.7402158069714,0.0137791411395244,1.8241721852,0.000161068912132205
1980,1.82462090537462,0.999696358653936,10.4970198681104,12.1060488090886,151,24,0.0968708612347015,89.1764578077864,0.0139864116063524,1.825175104,0.000165751403542739
1980,1.8434768446131,1.0093289206819,11.0153448813524,12.2841603005842,152,24,0.102365137960296,88.3124234902828,0.0142518828872299,1.826438148,0.000170664551440275
1980,1.86042761866792,1.01760730006895,11.5376783933482,12.4578341474114,153,24,0.108897000944902,87.4220229712577,0.014638758640294,1.828237296,0.000175524386194301
1980,1.87599329435062,1.02471166021153,12.0631375786651,12.6271026786857,154,24,0.116940344731831,86.5114877693783,0.0151972456270317,1.830752364,0.000180326601316313
1980,1.88973249249792,1.0308282218624,12.5908534635508,12.7920022378577,155,24,0.125331518419068,85.5888173151753,0.0157653520581295,1.833217652,0.000185067188322245
1980,1.90132800366959,1.03611077472089,13.1201737557744,12.952632602004,156,24,0.132934778467768,84.6582186397786,0.016204326576932,1.835062476,0.000189744181684718
1980,1.91145013498666,1.0407156932179,13.650691723335,13.1091561213276,157,24,0.140343983440135,83.7260244781943,0.0165965148688621,1.836668888,0.000194357741942961
1980,1.92076691535342,1.04478314880997,14.1820235687989,13.2617260373925,158,24,0.148363898893828,82.798700741812,0.0170388998437348,1.838435964,0.000198908103847424
1980,1.92982345705934,1.04843494852678,14.7137444737368,13.4104698291718,159,24,0.157777652704214,81.8828464513794,0.017615279940665,1.840670668,0.000203395041072346
1980,1.93822127624168,1.05177332823462,15.2453582150434,13.5554840677284,160,24,0.167393547467981,80.9851774913967,0.0181860582871457,1.842812728,0.000207817652743475
1980,1.94550941852283,1.05488171503642,15.7766065336755,13.6969193292473,161,24,0.175686207832877,80.1122187164317,0.0185908606050512,1.844291536,0.000212176933899222
1980,1.95197472977785,1.05782483899098,16.3075534968825,13.8349955698797,162,24,0.182866030307827,79.270202661672,0.0188642496155584,1.845272164,0.000216476332849136
1980,1.95789529822996,1.06064805117187,16.8382861067235,13.9699192219397,163,24,0.189304472340348,78.465333559865,0.0190534377137657,1.845942484,0.00022071922536437
1980,1.96351083530637,1.06337829840601,17.3688633544903,14.1018723106253,164,24,0.195439448967399,77.7038519073011,0.019207609333017,1.846483832,0.000224908531173073
1980,1.96894701803862,1.06602501771659,17.899284770392,14.2310075927711,165,24,0.201542483333175,76.9920885620454,0.0193554499708098,1.846998884,0.000229046507578109
1980,1.97416714609706,1.06858404425905,18.4295061308037,14.357455355647,166,24,0.207521866936938,76.3365301472209,0.0194890095545086,1.847460812,0.000233134916523875
1980,1.97902576932856,1.07103708052706,18.9594997145517,14.4813396592308,167,24,0.213032354059397,75.7437846269854,0.0195777191620142,1.847765876,0.000237175515666433
1980,1.98336136842245,1.07335646264887,19.4892977391325,14.6027888577366,168,24,0.21770393170277,75.2206587493227,0.0195912798232485,1.847812388,0.000241170389625236
1980,1.98647880048211,1.07518488970704,20.0189949701484,14.7219358485168,169,24,0.221389524263216,74.7405598668894,0.0195205664420303,1.847569492,0.000245121957038346
1980,1.9883501712003,1.0762222537658,20.548521753014,14.8388680725089,170,24,0.225692220498453,74.2722110049271,0.0195083569195865,1.847527464,0.000249031291464905
1980,1.98941357913301,1.07651141286137,21.0773191382246,14.9535617512391,171,24,0.231792154237925,73.8157819249031,0.0196516409277067,1.848019032,0.000252895831236747
1980,1.9893477699811,1.07608525949291,21.6046055656931,15.0659477775232,172,24,0.238567437266055,73.3714383780163,0.0198488379971622,1.848689732,0.000256711479044164
1980,1.98783231870548,1.0749705769608,22.1298396655076,15.1760115109099,173,24,0.244817336752907,72.9389726039994,0.0199992834202781,1.849196956,0.000260475972426016
1980,1.98459429432649,1.07318993766093,22.6527441600934,15.2837930362786,174,24,0.249405594326584,72.5178143087102,0.0200144720572634,1.849247952,0.000264188962697603
1980,1.98016373718243,1.0707633077603,23.1733007700934,15.3893817120735,175,24,0.253966905151219,72.1070646951081,0.0200303067646241,1.849301076,0.000267851891233865
1980,1.97503253640548,1.06770697729419,23.6911598197027,15.4927953868223,176,24,0.260169859278507,71.7059915495517,0.0201763057847264,1.84978892,0.00027146381232208
1980,1.96890325230272,1.0640346898702,24.2056186228408,15.5939815725546,177,24,0.266940098457891,71.3140467789936,0.0203645236886068,1.850412652,0.000275021348259714
1980,1.96145804508507,1.05976143983918,24.7162075689943,15.6929352405468,178,24,0.27299757836322,70.9304162972463,0.020497136757323,1.850848664,0.000278522791076142
1980,1.95246965918632,1.05490508065997,25.2227457090108,15.7897058466703,179,24,0.277264134752647,70.55400930398,0.020497136757323,1.850848664,0.000281968408009018
1980,1.94229749499205,1.04948756637632,25.7253073663409,15.8843872750236,180,24,0.280900886032343,70.18351995039,0.0204549734656027,1.850710344,0.000285360138719062
1980,1.93143870219659,1.04353406690233,26.2237263490288,15.9770233751593,181,24,0.285706056802632,69.8178345415285,0.0205015434266722,1.850863104,0.000288698225608611
1980,1.91986973774753,1.0370735910634,26.717446142647,16.067584004707,182,24,0.291437906790073,69.456163070968,0.0206161933805067,1.851237708,0.000291980287460287
1980,1.90753111361354,1.03014251278784,27.2059756919343,16.1560517145388,183,24,0.297624762123226,69.0977291081007,0.0207634322107862,1.851715748,0.000295204411171731
1980,1.89446039112942,1.0227863880385,27.6889475973814,16.2424311969997,184,24,0.304097942078879,68.7417753171352,0.0209305404239108,1.852254208,0.000298369512699644
1980,1.88094709800927,1.01506122644266,28.1660563320965,16.3267370256174,185,24,0.311730163782792,68.3876635185026,0.0211762154270445,1.853038072,0.000301474906217368
1980,1.86718151066433,1.00703385089377,28.6368214123645,16.4089519152966,186,24,0.320947919439856,68.0351014307048,0.0215263860982967,1.854139768,0.000304518763859876
1980,1.85308256978712,0.998783791989224,29.1006914897318,16.4890463436373,187,24,0.330793449426196,67.684126498677,0.0219141592361876,1.855339048,0.0003074988179903
1980,1.83857501643985,0.990406196235069,29.5573782258401,16.567035826348,188,24,0.340036340301512,67.3349389543927,0.0222579903594676,1.856384808,0.000310414497552513
1980,1.82366805728422,0.982013258530283,30.0069398286816,16.642992481595,189,24,0.347545949560143,66.9879192055855,0.0224864288605255,1.857070708,0.000313267403481458
1980,1.80878812919119,0.973729980108988,30.4497764609988,16.7170413765006,190,24,0.354205584410516,66.6443296737707,0.0226599167116059,1.857586976,0.000316061217149939
1980,1.79433229652826,0.965673976491875,30.886151224433,16.7892791149868,191,24,0.360926950669307,66.3088357793494,0.0228383861250036,1.85811396,0.0003187986486029
1980,1.78043093714108,0.958031647110282,31.3161728281907,16.8597725764036,192,24,0.366487834316879,65.9796162805116,0.0229447295141899,1.858426016,0.000321481360522411
1980,1.76721525125493,0.950976890250723,31.740355759038,16.928650979502,193,24,0.369694825565397,65.658870958728,0.0229070669518212,1.858315664,0.000324113466508286
1980,1.75490921467463,0.944695895969425,32.1596118867448,16.9961017929913,194,24,0.36973326660029,65.3490313950378,0.0226793582550066,1.857644584,0.000326701418744923
1980,1.744460655585,0.939382721641648,32.5751646711671,17.0623547068101,195,24,0.369991277017921,65.0527127617007,0.0224723642810642,1.85702868,0.000329253428434982
1980,1.66059511443763,0.894268349659465,32.9875054847372,17.1275158068438,196,24,0.371877464194024,64.0678611717227,0.0224398942530975,1.856931552,0.00033177306694128
1980,1.65572109382818,0.891641023878696,33.3741207798103,17.1880979040968,197,24,0.37522961948339,63.8150225535966,0.0224416715215366,1.856936872,0.000334124260848389
1980,1.65323103487143,0.89045346754709,33.7582682221138,17.2478107480218,198,24,0.376717128567971,63.5849836991789,0.0223350567325587,1.856616988,0.000336449842949617
1980,1.65174704761353,0.890127488737333,34.1412223940048,17.3068685661376,199,24,0.374432935463893,63.3440917030649,0.022009200741358,1.855629748,0.000338757847380654
1980,1.65026767198708,0.889940769901458,34.5244166276497,17.3655030629565,200,24,0.370560947054286,63.0650541892024,0.0215960320425129,1.854356748,0.000341057112891414
1980,1.64950701980918,0.889955390289286,34.9083286451295,17.4237942778234,201,24,0.368837255465996,62.7487091438849,0.0213133184294202,1.853471576,0.000343350625527929
1980,1.64965778288355,0.890206575714172,35.2925295744325,17.4816837483691,202,24,0.370018558629126,62.3986410605287,0.0212014111186245,1.853117948,0.000345635937743235
1980,1.6508672241861,0.890726037889473,35.6764213417088,17.5390895852038,203,24,0.374679996722299,62.0186560968981,0.021289049526084,1.853395044,0.00034790964295739
1980,1.65328523812866,0.891540321084309,36.0592775099479,17.5959133644139,204,24,0.383583218277111,61.6126945857851,0.0216145852588693,1.854414432,0.000350167635389459
1980,1.65660022721425,0.892669017864132,36.4401881159034,17.6520326021066,205,24,0.394704459153043,61.1848124578689,0.0220595588019128,1.855783268,0.000352404800051141
1980,1.66060352101491,0.894127962053956,36.8187568463218,17.7074031697781,206,24,0.406587940382759,60.7387078601385,0.0225406584472961,1.857232512,0.000354619101151539
1980,1.66549344911748,0.895928124184222,37.1949615205114,17.7620362573924,207,24,0.420511374698523,60.2777802319609,0.0231274306748019,1.858958776,0.000356810706965078
1980,1.67148983163357,0.898071222077958,37.5684561428371,17.8158961215399,208,24,0.438202216689071,59.8055364808941,0.0239119606507363,1.861199636,0.000358977903673666
1980,1.67865988691394,0.90054870402754,37.9384424273205,17.8688833527965,209,24,0.46067498267773,59.3256480130148,0.0249451838859221,1.8640412,0.000361116390688964
1980,1.68606078713353,0.903342718786626,38.3038378985913,17.9208608013165,210,24,0.481245919745508,58.8418323293956,0.0258630840311797,1.866468564,0.000363220294712748
1980,1.6929201831762,0.906385609377117,38.6652823588077,17.9719373243764,211,24,0.494297499652656,58.3602135646744,0.0263691933904747,1.867770368,0.000365293684789089
1980,1.62745806012727,0.871028812084555,39.0248691638648,18.0224221784369,212,24,0.500724812405461,57.0561694890974,0.0266301828768719,1.868431948,0.000367348855625859
1980,1.63461511139197,0.874615915159366,39.3628891381813,18.0695843345391,213,24,0.508029742452359,56.5842440416665,0.0268371284956065,1.86895194,0.000369273972283785
1980,1.64245620980997,0.878429796536867,39.7008647488632,18.1164589255622,214,24,0.517652771157624,56.116813855102,0.0271634401687066,1.869763772,0.000371192336050624
1980,1.65068049018475,0.882429654591511,40.0383057804589,18.1629827261438,215,24,0.527678286757384,55.6566466042226,0.0275072229689256,1.870608588,0.000373101257920399
1980,1.65876325212189,0.886573974092687,40.3752064414871,18.2091601912289,216,24,0.534090353724919,55.2061047856029,0.0276602368236287,1.870981216,0.000375000810638408
1980,1.66665073605763,0.890825745043707,40.7126083110062,18.2551379802847,217,24,0.536953978705405,54.7668287671174,0.0276290534486863,1.870905444,0.000376896941539709
1980,1.6742732664022,0.895144857581583,41.0515173382119,18.3010545689492,218,24,0.536319980442288,54.3404014634881,0.0274193513682455,1.87039366,0.000378795320643031
1980,1.68155664107126,0.899488297713496,41.3929033239999,18.3470404103417,219,24,0.532314890998405,53.9283608522999,0.0270405420733844,1.869459164,0.000380701342668217
1980,1.68869462203641,0.903810103901256,41.7376758490217,18.3932149245495,220,24,0.527494070498965,53.5322270986238,0.0266244588975496,1.868417508,0.0003826199976193
1980,1.69579693813144,0.908055914859674,42.0860360144829,18.4396007030469,221,24,0.523702896190857,53.1538909228023,0.0262643562660424,1.867502772,0.000384552286889806
1980,1.70273360555803,0.912164256202042,42.4376642270651,18.486151046861,222,24,0.520770718320703,52.7955081370981,0.0259509003792434,1.86669626,0.00038649632427318
1980,1.70938121678792,0.9160711221404,42.7922530932363,18.5328218988451,223,24,0.518632081223672,52.4592016510262,0.0256801761836917,1.865991816,0.000388450314863797
1980,1.71555159264387,0.919664197520486,43.1494778339056,18.5795679237475,224,24,0.517431063963819,52.149125050469,0.0254590403966797,1.865410872,0.000390412391565429
1980,1.72104353826318,0.922613366368499,43.5089139925096,18.6263318829568,225,24,0.520568636762236,51.8787451946602,0.025455152098007,1.865400612,0.000392380166656036
1980,1.65694487650939,0.887940700332036,43.8690564629599,18.6729184580003,226,24,0.526411720189333,50.6679432524204,0.0257037793638477,1.866053528,0.000394345396088668
1980,1.6617159430417,0.890117434702296,44.2082164098559,18.7165477307424,227,24,0.535765121054491,50.4558709605267,0.0260104537984159,1.866850236,0.000396190324895409
1980,1.66507259677327,0.8917180544535,44.5460016564521,18.7597689027127,228,24,0.542130843621528,50.2782393663991,0.0261709781095557,1.867263524,0.00039802224197584
1980,1.66661975545346,0.892745599815084,44.8828841823976,18.8026476525865,229,24,0.541804823217756,50.1329542736743,0.0260093355477255,1.866847348,0.000399843820985019
1980,1.66614389558751,0.892959612960883,45.2203286620683,18.8453736402075,230,24,0.536907463461939,50.034878714903,0.0256325128086841,1.865867024,0.00040166304692223
1980,1.66404418032402,0.89234539178627,45.559099591706,18.8880446316416,231,24,0.53132588479339,49.9855945391702,0.0252279321865617,1.864798312,0.000403484052419038
1980,1.66033347189356,0.890934012871542,45.8989150803652,18.9306255995966,232,24,0.524661581079603,49.9827569368732,0.0247772601310762,1.86358748,0.000405305321678465
1980,1.65504502924131,0.888763801079851,46.2396166476094,18.973097586021,233,24,0.516596751853482,50.0241727099866,0.0242662898497739,1.862187712,0.00040712601508172
1980,1.64825379116348,0.885879353659849,46.5811511308257,19.0154550538809,234,24,0.507093494053357,50.1077651539502,0.0236941456612913,1.860584948,0.000408945863060814
1980,1.6406087734593,0.882330171990508,46.9234992199587,19.0576967502469,235,24,0.50087887356601,50.2315709913376,0.0232814333951064,1.859404592,0.000410764778688898
1980,1.63170239244831,0.87774644342596,47.2654181899267,19.0996716433626,236,24,0.500147671047958,50.4123251075258,0.0231305446888717,1.85896782,0.000412576203814511
1980,1.62203114633303,0.872581454717869,47.6048846063468,19.1411366114448,237,24,0.50202615869914,50.6321435056203,0.023103056420907,1.858887944,0.000414369536119026
1980,1.61137446463718,0.866906223560825,47.940886102637,19.1819759033744,238,24,0.503528406662317,50.8891273870146,0.023060619817235,1.858764444,0.000416139609827469
1980,1.53357529663708,0.82528600325083,48.2732399200295,19.2221760503094,239,24,0.499533770165196,50.0585190565594,0.0228795595165367,1.858234952,0.000417885665927663
1980,1.52126575071164,0.819016045979888,48.583452377971,19.259524386931,240,24,0.495770370791214,50.3778396711627,0.0226073440507631,1.857430948,0.000419511131937579
1980,1.50846077610423,0.812439427446048,48.8911009919472,19.2964002506606,241,24,0.492570493723767,50.7278961853119,0.0223645156117793,1.856705528,0.00042111913065349
1980,1.49532543491732,0.805622661395704,49.1958680766613,19.3327716050052,242,24,0.490307455379408,51.1067597493796,0.0221675921229449,1.856111436,0.000422708142899391
1980,1.48201030681056,0.798632345482301,49.4973734705227,19.3685995015136,243,24,0.48923387238657,51.5123711823431,0.0220274110890746,1.855685304,0.000424276337795032
1980,1.46867495541527,0.791534987991601,49.7952064008499,19.4038419693151,244,24,0.489703777172465,51.9424877203621,0.0219592060848404,1.855476988,0.000425821741090986
1980,1.45513339939289,0.784257875015967,50.0888977543227,19.438450792805,245,24,0.491259758617388,52.4025615577126,0.0219429388398095,1.855427208,0.000427342092800119
1980,1.44122774635886,0.776761414916511,50.3780598465554,19.4723879804258,246,24,0.493121662288506,52.8972768544623,0.0219444036396514,1.855431692,0.000428835570752169
1980,1.42759075263587,0.769387222328674,50.6624916717765,19.5056378097755,247,24,0.495345501775765,53.4084526500441,0.0219636537350879,1.855490592,0.000430301326590675
1980,1.41434146080858,0.762200118591142,50.9421652470345,19.5382047854736,248,24,0.497937281397946,53.9324948485161,0.0220007110507979,1.855603832,0.000431739404307183
1980,1.40159300221397,0.755262188516089,51.2170865008577,19.570097140073,249,24,0.500895046418376,54.4654251592542,0.0220552414504163,1.85577012,0.000433150017421303
1980,1.38943203975949,0.748632394682761,51.4872958875964,19.6013268381924,250,24,0.504008995022817,55.0028551887443,0.0221177881985743,1.855960348,0.000434533550410958
1980,1.3136933203308,0.707812719262796,51.7529228010174,19.6319157687994,251,24,0.503561321061401,54.2425376511354,0.0221275497558291,1.855989988,0.000435890834854723
1980,1.30279452829626,0.70204654405363,51.9959624007982,19.6598078849469,252,24,0.502999836617717,54.7652255674668,0.0220353875279304,1.855709624,0.000437130301714686
1980,1.29240383498198,0.696730123790086,52.2359008083017,19.6872551039947,253,24,0.498889394622748,55.2760435169081,0.0217896037650076,1.85495616,0.000438351716132847
1980,1.28204778571395,0.691653161579578,52.4739551404095,19.7144000969275,254,24,0.49030731547161,55.7909040070401,0.0213538683632037,1.853599256,0.000439561357339173
1980,1.27262535346551,0.687208012728515,52.7114772814822,19.7413989973289,255,24,0.479279566980167,56.2734150949918,0.0208136242606404,1.851877932,0.00044076614162344
1980,1.26415845925123,0.683277146589491,52.9494810174278,19.768367722754,256,24,0.468372505657925,56.7316725305214,0.0202820679638754,1.850140116,0.000441971225457628
1980,1.25692388315483,0.67997633835223,53.1882168035058,19.7953346530122,257,24,0.458266788149249,57.14921051304,0.0197874905979669,1.848481796,0.000443177874052759
1980,1.25099686814518,0.677323088134812,53.4278139320075,19.8223141918075,258,24,0.449385488421856,57.5180206417935,0.0193477431290182,1.846972132,0.000444386732899241
1980,1.24647751067204,0.675327948024677,53.6682973459245,19.8493088677782,259,24,0.442492530485778,57.8297960864989,0.0189951289337134,1.8457366,0.000445597917836421
1980,1.24312936921113,0.673812440872273,53.9094928399804,19.8762989273295,260,24,0.438427213875189,58.133743209165,0.0187653287259972,1.844918992,0.000446810543532294
1980,1.2407098381876,0.672617911997916,54.1509034865812,19.9032289180382,261,24,0.437613619567079,58.4842687941076,0.0186759468939939,1.844598272,0.000448022112667392
1980,1.23922853479373,0.671780098768642,54.3918323521673,19.9300218678359,262,24,0.439501867498993,58.8806605514816,0.0187025050468594,1.844693728,0.000449229144307212
1980,1.23872321042284,0.671336092359076,54.6317503523557,19.9566203318042,263,24,0.443831816879306,59.3219561385676,0.0188330718665787,1.845161052,0.000450429020421994
1980,1.17286733716453,0.635383967099602,54.8702177704188,19.9829774239451,264,24,0.448017356239172,58.3649744251033,0.0190467777342137,1.845919,0.000451619586638664
1980,1.17316195025324,0.635344059949653,55.0876727646964,20.0069425709029,265,24,0.452993168955429,58.916475317792,0.019211847448816,1.846498652,0.000452703471137381
1980,1.17404835698964,0.635776063020332,55.3037233990857,20.0306877390151,266,24,0.455018201653653,59.5090488039103,0.0192517968192275,1.846638188,0.000453778687803165
1980,1.17570859985147,0.636718415530772,55.5194324456865,20.0543309520181,267,24,0.455244784466415,60.1401355975572,0.0192158473489047,1.846512636,0.000454850554947289
1980,1.17832978408603,0.638205114217417,55.7355715903021,20.0779571779388,268,24,0.455003632186433,60.8070025527881,0.0191603363300498,1.846318304,0.000455922915049826
1980,1.18206363322457,0.640264833741961,55.9525694358719,20.1016131176026,269,24,0.45535028581326,61.5067383633997,0.0191295998639013,1.84621046,0.000456997888814318
1980,1.18685032833658,0.642920351418722,56.1705834400953,20.1253155284875,270,24,0.455209200777819,62.2362024489089,0.0190783092687014,1.846030112,0.000458076243850733
1980,1.19244332860563,0.6461267513252,56.3900757783629,20.1491139797086,271,24,0.452854376367827,63.0042060346891,0.0189354988788015,1.845525396,0.000459160246803751
1980,1.19882080463869,0.64986799801024,56.6119524640343,20.1731054258399,272,24,0.448424486270271,63.8174332641498,0.0187082403006102,1.844714324,0.00046025433725721
1980,1.20622247431851,0.654276366073068,56.8370713595448,20.1973805657363,273,24,0.442046404453704,64.6481356242108,0.0183998526451321,1.843597808,0.000461362690235109
1980,1.21465015269428,0.659344468284722,57.0663241805043,20.2220327051544,274,24,0.434022960163987,65.4914486265102,0.0180232757497515,1.842208756,0.000462489620373273
1980,1.22421737714779,0.665037779187494,57.3005123382634,20.2471443873673,275,24,0.426193912654405,66.347098538731,0.0176554846313939,1.840823808,0.000463638971044185
1980,1.15537992530494,0.628063294307541,57.5399193776114,20.2727418518081,276,24,0.417689371322428,65.5652016245706,0.0173345552957639,1.839591544,0.000464812023786753
1980,1.16549507176074,0.633956706184455,57.7612265438061,20.2963381326806,277,24,0.411556776006872,66.4401290827417,0.0170414061481906,1.838445844,0.000465894681288566
1980,1.17645400102434,0.640317169819002,57.9874080325323,20.3203891067617,278,24,0.40550850575485,67.3243324604365,0.0167528922961846,1.837298852,0.000466999497327086
1980,1.18836317826456,0.64722024629125,58.2186916811131,20.3449151004013,279,24,0.399322359040888,68.1761356281457,0.0164573419986498,1.83610322,0.000468127481511135
1980,1.20092438461397,0.654417734297706,58.4554039268802,20.3699465411443,280,24,0.394378678828243,69.0315606615557,0.0162142664405248,1.835103668,0.000469280114868371
1980,1.21421929572753,0.661885858767626,58.6973676386159,20.3954603955822,281,24,0.391696180198001,69.8893056657965,0.016065479422146,1.83448442,0.000470456420642645
1980,1.22802462304227,0.669562628565042,58.9441245732748,20.4214042872459,282,24,0.390254508100939,70.7150215894853,0.0159666318674179,1.83406984,0.000471654062971975
1980,1.24201708589726,0.67732622889695,59.1954556077572,20.4477513991768,283,24,0.389144858527498,71.5026777702899,0.0158803540600092,1.833705876,0.000472871877233506
1980,1.25584841291237,0.685042391651936,59.4513172759681,20.4744934936364,284,24,0.387493505255676,72.2462782780916,0.0157710430729422,1.833241896,0.000474109554009919
1980,1.26924471876949,0.692565540942986,59.7118237482651,20.5016387674631,285,24,0.385266864963321,72.9399067819992,0.0156375538211381,1.832670908,0.000475367545094682
1980,1.28196990215763,0.699739983266778,59.977017104407,20.5291877744865,286,24,0.382890997694668,73.5778194503207,0.0154973899524777,1.8320661,0.000476645950472436
1980,1.29373095509027,0.706401765734287,60.2467407757459,20.5571204544465,287,24,0.380425838832836,74.1544855702506,0.0153531313462892,1.831437884,0.000477943912833616
1980,1.20411094916018,0.657698048855557,60.5207323106231,20.5854060195716,288,24,0.376291171866353,72.9126785657474,0.0152071183008485,1.830795988,0.00047926007132728
1980,1.21206053929629,0.662291292382199,60.7690782438113,20.610967048306,289,24,0.373391876877784,73.3790301045336,0.0150507907600676,1.83010188,0.000480451010785088
1980,1.21837479334405,0.666005034778653,61.0206788425368,20.6367889280117,290,24,0.370370130581176,73.7651933478804,0.0148894146260105,1.829377752,0.00048165560439058
1980,1.22313903624757,0.668885130456903,61.2750802413657,20.6628229158061,291,24,0.367223549204888,74.1139383793994,0.0147231541484625,1.828623452,0.000482871619693394
1980,1.22667242925722,0.671085266753848,61.5318548874785,20.6890234886883,292,24,0.364247703986243,74.4711279806354,0.0145640386025884,1.827893548,0.000484096963801516
1980,1.22902351537587,0.672611160437711,61.7905823050598,20.7153463546789,293,24,0.361728733232411,74.8359178982687,0.0144235064027467,1.827242228,0.00048532959094067
1980,1.23023492307628,0.673465027622317,62.0507707397028,20.7417405071976,294,24,0.359948860825261,75.207404046514,0.0143127215314257,1.826724288,0.000486567129891232
1980,1.23033960500568,0.673645903245101,62.3118565583781,20.7681482696004,295,24,0.359159358016099,75.5846202160992,0.0142415024203203,1.826389204,0.000487806883973637
1980,1.22928564690306,0.673150007760322,62.573210632475,20.7945060401837,296,24,0.358987373146027,75.9665338210911,0.0141948838033183,1.826168956,0.000489045864048355
1980,1.22695336847286,0.671971499540295,62.8343001146021,20.8207606241736,297,24,0.358560583812069,76.3520044382085,0.014138352622351,1.825900904,0.000490281555938795
1980,1.22322431404065,0.670103235678741,63.0948179500003,20.846882048444,298,24,0.357035795066116,76.739757176595,0.0140388880918072,1.825426664,0.000491512527891419
1980,1.21799346980714,0.667537301877034,63.3546745056927,20.8728623891418,299,24,0.353694601688013,77.128394977454,0.0138686962545345,1.8246073536,0.000492738382191551
1980,1.10957282763331,0.608458625203156,63.6139641661284,20.8987121297717,300,24,0.347544638396328,75.7416245934311,0.0136581502493429,1.82357975,0.00049395958954011
1981,1.28666968422468,0.707730207747576,6,10.2186114170614,141,24,0.0582034019523874,92.194497541495,0.0125737521296936,1.8180228428,0.000118096259579378
1981,1.29539013588141,0.712296232082126,6.36853988468169,10.4048763078131,142,24,0.0612894673159326,91.9015891944576,0.0126844278974122,1.8186115236,0.000122440816464673
1981,1.30146169124406,0.715330988114283,6.73877008525133,10.5845772660079,143,24,0.0645753912476033,91.6226949035668,0.0128311207795921,1.8193839116,0.000126706649949117
1981,1.30488678416453,0.716929073073949,7.10983597525027,10.7579059332954,144,24,0.067847738051972,91.3583798830862,0.0129697614600979,1.820105828,0.000130890419159057
1981,1.30566713076623,0.717155130588861,7.48094768908404,10.9250595808888,145,24,0.0709298905329955,91.1086908661695,0.0130694608444584,1.8206202188,0.000134989504032368
1981,1.30399020270273,0.715996513027036,7.85136886115401,11.0862341096266,146,24,0.0741172424599838,90.873472913456,0.0131875104918458,1.8212242364,0.000139001812838746
1981,1.30023151153866,0.71355761079416,8.22033074922683,11.241587746652,147,24,0.077723983748692,90.6510390535767,0.0133767961332575,1.8221815476,0.000142924829539776
1981,1.2944601148233,0.709780562703959,8.58708300756382,11.3912664122702,148,24,0.0821150499965093,90.4401884152555,0.0136921826898147,1.8237469196,0.000146756177544989
1981,1.28648598091539,0.704613378295983,8.95078652701186,11.5353629316756,149,24,0.0872575941843785,90.2388226248912,0.0141179881921851,1.82580408,0.000150492514831637
1981,1.27587435204256,0.697988384742276,9.31055504303116,11.6739394541045,150,24,0.0926816486559441,90.0441926346696,0.0145720819814613,1.827930636,0.000154130024185888
1981,1.33124087836911,0.727511844836958,9.66551285404715,11.8070520064318,151,24,0.0976833593301568,90.0845951646081,0.014995481907157,1.829854576,0.000157665011135575
1981,1.31364725358045,0.717331722532565,10.0355801097588,11.9422510640537,152,24,0.102592886612738,89.8795942968729,0.0153209080692968,1.831296752,0.000161296434701485
1981,1.29202548655656,0.705236774371366,10.3988964198491,12.0716443129257,153,24,0.106490213470691,89.6687773155453,0.0154925163282072,1.832044972,0.00016481063575925
1981,1.26633500489576,0.691088732768326,10.7545570017749,12.1952939000453,154,24,0.109702620189417,89.4469778576054,0.0155692516766257,1.832376864,0.000168204230892594
1981,1.23648767377978,0.674738919643929,11.1015467171868,12.3132118429841,155,24,0.112584137843977,89.2062525304641,0.0156076646391138,1.832542392,0.000171472735499513
1981,1.20207809188514,0.65605157933051,11.4387177779676,12.4253572110175,156,24,0.114681933160454,88.9369738028656,0.0155496056482222,1.832292048,0.000174610412896842
1981,1.16282712156505,0.634939003892489,11.764936625585,12.5316877143437,157,24,0.115564510414345,88.6290679020801,0.0153444137984076,1.831399732,0.000177611671402807
1981,1.11869754284888,0.611402290741399,12.0791154089302,12.6321684658498,158,24,0.114965711684625,88.2714164964125,0.0149663966320849,1.82972416,0.000180471318508437
1981,1.07069411848428,0.585582270825526,12.3802349582794,12.7267771961618,159,24,0.114881486160409,87.8524299472585,0.0146800403594504,1.82842646,0.000183184724506484
1981,1.01988323850816,0.55783203009372,12.6669787479766,12.8153898272042,160,24,0.116679100630401,87.36179081782,0.0146520144964187,1.828298096,0.000185744522801963
1981,0.966975686045667,0.528805014511413,12.9379399893399,12.897849450518,161,24,0.119139125370253,86.7931612352602,0.0147191901239596,1.828605364,0.000188142530159378
1981,0.913492863676212,0.499546778571181,13.1922909575426,12.9741660352782,162,24,0.121027615958382,86.1486250981066,0.0147275024782604,1.828643288,0.000190375596179124
1981,0.861895871874627,0.471544633749221,13.4300305318579,13.0445766942385,163,24,0.121236707017646,85.4454445537937,0.0145467965769907,1.827813976,0.000192447535770545
1981,0.816119570173271,0.446697595848141,13.652228281315,13.1096032556976,164,24,0.121360678319861,84.7234613354779,0.0143730555640315,1.827006856,0.00019437100069246
1981,0.780498852162161,0.427162701153133,13.860655948871,13.1699328699238,165,24,0.12313035545976,84.0491016035417,0.0144079955836751,1.827169952,0.000196164084615753
1981,0.758710849987566,0.415095892841825,14.0578664978818,13.2264362626111,166,24,0.125672673081302,83.5084517850675,0.0145430281199115,1.827796572,0.000197850913743991
1981,0.753927863690806,0.412342903483105,14.2477779509536,13.2803285743278,167,24,0.128117774547443,83.1845358664871,0.0146743113627459,1.82840024,0.000199466521434079
1981,0.762380527054239,0.416931364535972,14.4355209776966,13.3331156364367,168,24,0.12967617716719,83.0076776372805,0.0147074209324734,1.828551632,0.000201055364299621
1981,0.778377749416832,0.42564337294474,14.6253322826628,13.3860000219205,169,24,0.1312570742496,82.8600546416767,0.0147418560766047,1.828708724,0.00020265345680788
1981,0.801028584307107,0.437866532624109,14.8194684852129,13.4395968488786,170,24,0.133907907920844,82.7255294326737,0.014892093367455,1.829389836,0.000204279532832966
1981,0.828846626988172,0.452844142022132,15.0196046881288,13.4943402963125,171,24,0.137130684380835,82.5844215527955,0.0150982215884255,1.830313236,0.00020594710392977
1981,0.860235466304439,0.469768301119419,15.227119470911,13.5505677546169,172,24,0.140372826185814,82.4176145607814,0.0152967979819366,1.83119096,0.000207666937155447
1981,0.893657737598476,0.487860852695756,15.4430782629466,13.6085189038782,173,24,0.14313955851053,82.2094748282653,0.0154334013888882,1.831788168,0.000209446976441384
1981,0.927855039529401,0.506433889564563,15.668233716673,13.6683395971692,174,24,0.145469724997751,81.9491411246344,0.0155131959428924,1.832134576,0.000211292408947808
1981,0.961932313246095,0.524923758215406,15.9029493110325,13.7300658201638,175,24,0.147974861137385,81.630593993481,0.0156020325797604,1.832518148,0.000213205111179569
1981,0.995158827136615,0.542901545813875,16.1471365466651,13.7936126557375,176,24,0.150881101760057,81.2520173053767,0.0157230995281625,1.83303738,0.000215183231837163
1981,1.02705526997046,0.560068136682357,16.4004198642781,13.8588228671439,177,24,0.154462008154872,80.8147837343931,0.0159036024774384,1.833804144,0.000217222626930002
1981,1.05731557460978,0.576237375486046,16.6621978428227,13.9254866239285,178,24,0.15885632343448,80.3225354462072,0.0161558335510243,1.834861152,0.000219317423073839
1981,1.08567107763004,0.591314835676324,16.9317356181753,13.9933680415836,179,24,0.163681519782049,79.7804014749807,0.0164391232362662,1.836028816,0.000221460811469407
1981,1.11198362591642,0.605276683610223,17.2083324855297,14.0622487150167,180,24,0.168564121561203,79.194338595678,0.0167156318144728,1.837149284,0.000223646405915183
1981,1.13637469905253,0.618148852198077,17.4913583368363,14.1319362095938,181,24,0.173825517939903,78.5706974530368,0.0170174185963282,1.838351224,0.000225868522129463
1981,1.15902156242251,0.629991012256939,17.7801230911701,14.2022314328061,182,24,0.179773584222977,77.9161035197905,0.0173736868161707,1.839743012,0.00022812114581835
1981,1.18011101671572,0.640880007739297,18.0738974846299,14.2729343320126,183,24,0.186644510866671,77.2371918813716,0.0178053336000945,1.841391528,0.000230398108207657
1981,1.19944087479103,0.650901866570894,18.3719374363846,14.3438500107087,184,24,0.192904844410223,76.5405365370105,0.0181655352827354,1.84273688,0.000232693281426793
1981,1.2169896265924,0.660146213636793,18.6738982454989,14.4148855639467,185,24,0.197694057409281,75.832244800895,0.0183772585801715,1.843515272,0.000235003738629134
1981,1.23317400099682,0.668699601681552,18.9796869162538,14.4860103699597,186,24,0.202123574649417,75.1180089251063,0.0185482740678408,1.844137484,0.000237328534226769
1981,1.24843397505759,0.676639052771165,19.289002044158,14.5571474543171,187,24,0.207539878530893,74.4034461936719,0.0188024136485594,1.845051612,0.000239665176715167
1981,1.26314443928119,0.684029554175797,19.6012702731161,14.6281617282513,188,24,0.215176169530462,73.6941598353267,0.0192473321246803,1.846622608,0.000242009202167087
1981,1.27721495366871,0.690922813244844,19.9156607540413,14.6988664826331,189,24,0.224298157934261,72.99574278605,0.0198116839934195,1.848563876,0.000244354343646834
1981,1.29031486049034,0.697353798609198,20.2315357927616,14.7691259466779,190,24,0.233060155538667,72.3162601468219,0.0203308893751511,1.850301616,0.000246695916937495
1981,1.30241173599401,0.703351635184071,20.5487122042471,14.838909748759,191,24,0.240981606788128,71.6592775756338,0.020765382120996,1.851722056,0.000249032690318902
1981,1.31347125118592,0.708936041030816,20.8671412430089,14.9082179968477,192,24,0.247626728226826,71.0277141392527,0.0210811691202484,1.852735896,0.000251364442186232
1981,1.32341091947785,0.714113072707565,21.1868945998966,14.977076667656,193,24,0.252425950892717,70.4256298539811,0.0212346596018826,1.853223208,0.000253691828900842
1981,1.33208050314174,0.718877945939337,21.5081900904721,15.0455417007252,194,24,0.254567836474447,69.8568213678535,0.0211640717911713,1.85299954,0.000256016544134353
1981,1.3395565014722,0.723215990312213,21.8314438904723,15.1137084074331,195,24,0.2545815154765,69.3248131379644,0.0209204784787343,1.852221908,0.000258341663348426
1981,1.28574592807062,0.69449729540351,22.156936386271,15.1816400663908,196,24,0.25381435623029,68.197174706689,0.0206455340216223,1.85133324,0.000260669221533541
1981,1.29147512799397,0.697813967546283,22.4665158578231,15.2456082553704,197,24,0.254299967305098,67.7535760284953,0.020465274604638,1.850744164,0.00026287052089587
1981,1.29670329163094,0.700605233441428,22.7776684060298,15.3092854108077,198,24,0.25733335234025,67.3586769847433,0.0204923600702089,1.850833008,0.000265070997749431
1981,1.30203863852828,0.703147089357417,23.089479387817,15.3724919953014,199,24,0.263515147794169,66.9996502238731,0.0207678726340357,1.851730112,0.000267264283470284
1981,1.30770868067074,0.705671016475211,23.4010364350372,15.4350556784989,200,24,0.271873907487758,66.6651647721144,0.0212090404591821,1.853142116,0.000269444159575643
1981,1.31358396966359,0.70818986418943,23.7117868669921,15.496881730232,201,24,0.281673229017011,66.3532406030618,0.0217542803071683,1.854847176,0.000271607032525432
1981,1.31946485991263,0.710693806783542,24.0213600891861,15.5579145724702,202,24,0.291922084641471,66.0632826785834,0.0223250773401519,1.856586968,0.000273750636992869
1981,1.32517448792413,0.713175597584218,24.3296229217675,15.6181467421826,203,24,0.301612603551928,65.7945009863978,0.0228445625762281,1.858132124,0.000275874380813362
1981,1.3305002184836,0.715630613185942,24.6366914870791,15.6776190451812,204,24,0.309362669962312,65.5459048911626,0.023210527164123,1.859199696,0.000277979383782657
1981,1.3353804233803,0.718057466602036,24.9430327516355,15.7364378912098,205,24,0.314652750498593,65.316226749734,0.0233883843279349,1.859712468,0.000280069126882007
1981,1.3398721995676,0.72045652111831,25.2492510535,15.7947320750214,206,24,0.317755643954751,65.1040991533988,0.0234029957305305,1.85975442,0.000282147950704739
1981,1.34401018767601,0.722828436260868,25.5558860201839,15.8526138971397,207,24,0.318853384620706,64.9082150450197,0.0232716893894869,1.859376472,0.000284219674539441
1981,1.34785709445399,0.725174173859465,25.8634330611005,15.9101836999894,208,24,0.318347945728961,64.7273063762058,0.0230270914023245,1.858666708,0.000286287747530561
1981,1.35156116926115,0.727494494389532,26.172285805718,15.9675197307019,209,24,0.317217902005865,64.5601835638672,0.0227420796011467,1.8578301,0.000288354873882651
1981,1.35527507574044,0.729788867761866,26.4825887858945,16.0246520313278,210,24,0.316467551225529,64.4058410896032,0.0224889731237613,1.857078308,0.000290422051571696
1981,1.35893460350041,0.73198750792185,26.794231043249,16.0815632283152,211,24,0.316493251377358,64.2729541644738,0.0222960992450109,1.85649972,0.000292488569639058
1981,1.3014728898415,0.701150679219054,27.1069634488859,16.1382116067861,212,24,0.317045307013585,63.4030888577565,0.0221954238105827,1.85619572,0.000294552819944178
1981,1.30526231250627,0.703173522357135,27.4022917237343,16.1912907274433,213,24,0.31983151976966,63.2964782247612,0.0222117023203249,1.856244968,0.000296493594600202
1981,1.30914541340832,0.705157311723018,27.6979209615553,16.2440261096351,214,24,0.323746972293655,63.1995746254116,0.0223060152098992,1.856529588,0.00029842811189136
1981,1.31307447471015,0.707099720934365,27.9935404938897,16.2963689271668,215,24,0.328520841782445,63.1115396019495,0.022458181452042,1.856986272,0.000300354448999159
1981,1.31715254116756,0.708998742473166,28.288906583768,16.3482835128307,216,24,0.334931799578186,63.0314394711148,0.022719807955405,1.857764284,0.000302271147551371
1981,1.32150979415758,0.710850878719417,28.5835728062448,16.3996999933962,217,24,0.344040625664122,62.9584409540323,0.0231600570307045,1.859053472,0.000304175464718424
1981,1.3261999638334,0.712650627050462,28.8768135567929,16.4505022861597,218,24,0.356510580339776,62.8918575674726,0.0238196685005478,1.860939868,0.00030606290723829
1981,1.3308026159528,0.714391092951141,29.1677203718409,16.5005461884741,219,24,0.369505374242278,62.8310704172868,0.0245062994574527,1.862848836,0.000307927881227899
1981,1.33488665926731,0.716069728761185,29.4561095443541,16.5498147873957,220,24,0.379670883080526,62.7748786456937,0.02499875219303,1.864185296,0.000309769496012525
1981,1.33853056726458,0.717689140744587,29.7426742772101,16.5984398040658,221,24,0.38737625693349,62.721414785111,0.0253249644944906,1.86505618,0.000311592437808364
1981,1.34181301579301,0.71925089648679,30.0280205703095,16.6465347002026,222,24,0.393105273409633,62.6688429463648,0.0255194860870573,1.865570168,0.000313400766482688
1981,1.34477217344002,0.720755346652151,30.3126328930245,16.6941896159535,223,24,0.397094583820944,62.615380205008,0.025599994690873,1.865781752,0.000315197712829118
1981,1.34710112343166,0.72211315831691,30.5969361699102,16.7414824478166,224,24,0.398128949388278,62.5704656063462,0.0254923312396012,1.865498652,0.000316986084371692
1981,1.34884078253251,0.723381664714716,30.8816278221232,16.7885339684324,225,24,0.395686661530213,62.5249879610854,0.0251656428967833,1.864632252,0.000318770351206522
1981,1.28770075567439,0.691030936559676,31.1675740584239,16.8354894952233,226,24,0.390294853313246,61.5985340324167,0.0247261526067849,1.86344878,0.000320555970092751
1981,1.28896209859727,0.692166132251413,31.4367958291322,16.8794250467255,227,24,0.38561143473653,61.536157414831,0.0242761207060976,1.86221492,0.000322231262109358
1981,1.2902854721915,0.693251202798468,31.7078010282905,16.9233875838259,228,24,0.382278960134291,61.4632644997132,0.0239153426452267,1.861209136,0.000323911953438132
1981,1.29213696372787,0.69439569462344,31.9802029819076,16.9673135779302,229,24,0.382398583281594,61.3894747755105,0.023772902972908,1.860807856,0.000325595613950901
1981,1.2944426605942,0.695574579776265,32.2531244960415,17.0110626056339,230,24,0.385707680996236,61.3348531608754,0.0238299654816188,1.8609689,0.000327276829504616
1981,1.29701793367769,0.696815701402243,32.5257449899209,17.0545065424805,231,24,0.390294071864702,61.2965536488177,0.0239655605853124,1.86135004,0.000328950604965645
1981,1.2996253965329,0.698113246549843,32.7977621484648,17.0976021164976,232,24,0.394283499480847,61.2741118975555,0.0240640259327536,1.861625464,0.000330615176895568
1981,1.30203520157115,0.699464762959685,33.0693647175804,17.1403841736012,233,24,0.395760101057168,61.2667313382279,0.0240096896432854,1.861473616,0.000332271794416217
1981,1.30418207569756,0.700871039848771,33.3412472477346,17.1829657516634,234,24,0.39415797987898,61.2732836423598,0.0237707513332746,1.860801776,0.000333924759932995
1981,1.3060846864514,0.702241212278299,33.6142544764802,17.2254806541917,235,24,0.391069622515973,61.3038234258686,0.0234469377859054,1.859880428,0.000335579228898908
1981,1.30798898768221,0.703608330608914,33.8887589956608,17.2679867704264,236,24,0.388061895291395,61.3535573348344,0.0231323766577121,1.85897314,0.000337237443185544
1981,1.3101999807169,0.705028598481357,34.1647371233781,17.3104798469745,237,24,0.386782761287812,61.4146706090242,0.0229236599050601,1.858364304,0.000338899233715341
1981,1.31288217920275,0.706496786825114,34.4417622892068,17.3528942150218,238,24,0.388626508205977,61.4867047008983,0.02290133998787,1.858298868,0.000340562019135634
1981,1.25272612158303,0.673958869143598,34.7190389905058,17.3951096624966,239,24,0.392322532236077,60.542079569952,0.0230582456735654,1.858757528,0.000342221046814753
1981,1.25587030937243,0.675411434605496,34.9771600673099,17.4341979891504,240,24,0.398276288545194,60.6315958937212,0.0232851213799865,1.859415232,0.0003437607758302
1981,1.25907731097127,0.676886592392439,35.2344382735581,17.4729591205837,241,24,0.404463216047601,60.7305665873925,0.023523995085088,1.860100828,0.00034529102904203
1981,1.26221272712523,0.678380322013146,35.4908225020352,17.5113898238968,242,24,0.409747274176341,60.8381546896755,0.0237089749062365,1.860626976,0.000346811592334491
1981,1.26513677401354,0.679889597744499,35.7465621379198,17.5495316213919,243,24,0.412885296159831,60.9533080792244,0.0237691915163153,1.860797368,0.000348324027808756
1981,1.26753507905319,0.681410313603639,36.002237581276,17.5874742013272,244,24,0.411082772666481,61.0750153410218,0.0235462025522953,1.860164212,0.000349831828651876
1981,1.26913179245332,0.682774186353215,36.259173273192,17.6254150800261,245,24,0.404725566621961,61.2241827936471,0.0230683700969957,1.858787016,0.000351342818058068
1981,1.27066456727935,0.684156382797169,36.5184951409414,17.6635187906447,246,24,0.397655493676379,61.3765503504598,0.0225539491918964,1.857272108,0.00035286356930627
1981,1.27254169075581,0.685549796347906,36.7803978630223,17.7018107901736,247,24,0.393505877237535,61.5309968425002,0.0222084858662693,1.85623524,0.000354395143810468
1981,1.27511983220807,0.686941236438401,37.0441086070777,17.7401756012584,248,24,0.395417120954113,61.686914972679,0.0222062245758983,1.8562284,0.000355932956683088
1981,1.27820535602966,0.688312288984816,37.3080194204539,17.7783794210749,249,24,0.402038872779012,61.8441063877735,0.0224673560589784,1.857013708,0.000357467624730301
1981,1.28134038770698,0.689645268456181,37.5708693654291,17.8162429047357,250,24,0.409792693262515,62.0020898806228,0.0227895760555831,1.857970244,0.000358991878689616
1981,1.21892857041825,0.65568953591509,37.8323336737625,17.8537240598337,251,24,0.416879787580787,60.9539475165328,0.0231425336306036,1.859002628,0.00036050393528597
1981,1.22172312221073,0.656828722159711,38.0729483086137,17.8880572069718,252,24,0.425206767498833,61.1024555435342,0.0235002663935692,1.860033036,0.000361891784171135
1981,1.22412324421791,0.657795674125625,38.3119032150273,17.9220041855051,253,24,0.432896458859155,61.2622485367457,0.0238223905680192,1.860947544,0.000363266644449519
1981,1.2260132036194,0.658685639401487,38.5492712506349,17.9555799356787,254,24,0.43703697262872,61.4212727902875,0.023948592801462,1.861302464,0.000364629033955112
1981,1.22707189935802,0.659406341129652,38.7859641199321,17.9889170085449,255,24,0.436070311964376,61.5810615127453,0.023796206940719,1.860873672,0.000365984261586049
1981,1.22753169738248,0.660017034775866,39.0232645961502,18.0221976237957,256,24,0.43125715163001,61.7322474606155,0.0234357987084319,1.859848508,0.000367339701542599
1981,1.22747460919931,0.66050126297412,39.2621469598759,18.0555579312582,257,24,0.423814170399556,61.872692807447,0.0229353599704838,1.85839858,0.000368700901509177
1981,1.22700832801668,0.660839158317205,39.5032450915159,18.0890845403715,258,24,0.415235596035882,62.0003865788226,0.0223769176467163,1.856742768,0.000370071423276871
1981,1.22639668060557,0.661007222531119,39.7467769111101,18.1228051029837,259,24,0.408410856886453,62.1134712377228,0.0219162172120752,1.855345356,0.000371452438206692
1981,1.22522070541301,0.660743354717295,39.9921726582258,18.1566384095309,260,24,0.40384295186893,62.2686473332485,0.0215798873409048,1.854306512,0.00037284065544819
1981,1.22290197526047,0.659839439282608,40.2385859842891,18.1904667287036,261,24,0.399689378468856,62.5209659073173,0.0212692837110958,1.853332648,0.000374231256713548
1981,1.21933932535056,0.658354879618968,40.4855497633265,18.2242260571635,262,24,0.394035354122972,62.8666565610455,0.0208826652051054,1.852100384,0.000375621602493048
1981,1.2144981212815,0.656356108495793,40.7331409546948,18.257927380376,263,24,0.385538896502716,63.302199065137,0.020349967319521,1.85036462,0.000377012130664578
1981,1.14162033431555,0.617557848752759,40.9818287221285,18.2916345474325,264,24,0.37583298816192,62.4957545807669,0.0198237244955825,1.848604688,0.000378405469695371
1981,1.13515815027293,0.614483445768062,41.2115649259745,18.3226465725621,265,24,0.370109956161261,63.1338383316378,0.0194531893650249,1.847337236,0.000379689670720765
1981,1.1283213634765,0.611102829107886,41.4410793842081,18.353508580007,266,24,0.366082336243636,63.8555250515085,0.0191748227376513,1.846369072,0.000380969819205307
1981,1.12112345970475,0.607486853836239,41.6697510923779,18.3841390184468,267,24,0.362668992054113,64.658599806219,0.0189313431441912,1.845510652,0.000382242492498634
1981,1.11359247776447,0.603704782683119,41.8972874326731,18.4145013112324,268,24,0.35897435536489,65.5406103710718,0.0186757989845394,1.84459774,0.000383506118953564
1981,1.10594958580485,0.599822389920422,42.123672869393,18.4445961870996,269,24,0.355880923239375,66.4987804633274,0.0184539746606677,1.843795104,0.000384760673726435
1981,1.09840415996579,0.59589199471906,42.3486934681626,18.4743981226284,270,24,0.354376807096798,67.5331926957494,0.0183168324285791,1.843294036,0.000386005035629561
1981,1.09091622866952,0.59192582337362,42.5719016740233,18.5038511839804,271,24,0.353872136662293,68.6690741324124,0.0182354246534721,1.842994824,0.000387236804322285
1981,1.0836770246166,0.58805337411722,42.7930149016255,18.5329218770916,272,24,0.354010572980671,69.8697633229118,0.018188260025102,1.84282086,0.000388454505988742
1981,1.07670198192525,0.584303357930489,43.0119148371163,18.5615986363915,273,24,0.354469041440181,71.1300486864949,0.0181584255008006,1.842710584,0.000389657579614859
1981,1.07002111978386,0.580691159548118,43.2285847192618,18.5898832542165,274,24,0.355272673669041,72.443724704399,0.0181469652983506,1.842668176,0.000390846023909258
1981,1.06362158964305,0.577232593828502,43.4430092530962,18.6177776477854,275,24,0.356003826352176,73.8338865493052,0.0181345479821635,1.842622196,0.000392019844345036
1981,0.984766664304468,0.534515070386645,43.6552945820835,18.6452993846989,276,24,0.354576246983421,73.8844256960806,0.0180626336119264,1.842355284,0.000393179707965327
1981,0.978001952104091,0.531044287593462,43.8443517072798,18.6697312839644,277,24,0.351744395608101,75.3845892600205,0.0178761022081319,1.841657984,0.000394210790440566
1981,0.971380966423132,0.527821654185795,44.0322289742286,18.6939380774559,278,24,0.345837978576051,76.8905622174282,0.0175335579383197,1.840358308,0.000395233704526261
1981,0.964625004594683,0.524582920888763,44.2198918705827,18.7180454929695,279,24,0.338931191046549,78.4098798746459,0.0171421551521633,1.838841804,0.000396253736444892
1981,0.958077069458556,0.521423658141411,44.4076000146472,18.742087494543,280,24,0.33263596983293,79.9462335071349,0.0167844808789844,1.837425392,0.000397272309795941
1981,0.951386538473258,0.518207938818541,44.5952323445348,18.7660491035464,281,24,0.326025813162855,81.4491732648395,0.0164116750715459,1.835916564,0.000398288778097251
1981,0.8791340186273,0.479317783071626,44.782840562128,18.7899374828091,282,10,0.250178178123303,82.8980071544374,0.0159823739598343,1.834136036,0.00039930343271037
1981,0.877821233320044,0.479169429722892,44.9715273142792,18.8138929443798,283,10,0.24279922593837,84.2697312208811,0.0154738949817921,1.831964184,0.000400322232865097
1981,0.875504731241232,0.478432996040804,45.1620339164937,18.838008488264,284,10,0.236189419588433,85.5395608038122,0.0150150563775305,1.829942204,0.000401349152239785
1981,0.872340079688296,0.477058769912138,45.3538285099895,18.8622155595184,285,10,0.232049500664113,86.6813163912322,0.0147136123179424,1.828579904,0.000402381292106623
1981,0.868240777493905,0.475056138686793,45.5459156836968,18.8863881527982,286,10,0.229504138365581,87.6675592637233,0.0145133425117463,1.827659316,0.000403413284533653
1981,0.86327323328399,0.47250485322576,45.7375366754353,18.9104313890189,287,10,0.227934670558564,88.4699532604302,0.0143746980901235,1.827014532,0.000404441065460442
1981,0.78294167839846,0.428660382640214,45.9281382442529,18.9342771685401,288,9,0.221408374772152,88.2293287601012,0.0142617868376544,1.826484812,0.000405461697183089
1981,0.777852532246409,0.425959205448491,46.0965982353408,18.9552955078532,289,9,0.22074404116639,88.6083259904614,0.0141844967069333,1.826119784,0.000406362377101062
1981,0.772379849374902,0.422986343363641,46.2637307826648,18.9760953873908,290,9,0.220942717522569,88.8437919945231,0.014162607589264,1.826016044,0.000407254679295881
1981,0.766302684982057,0.419649335443525,46.4291619222205,18.9966320134927,291,9,0.221606117783265,89.0678228287044,0.0141707819855188,1.826054804,0.000408136648175507
1981,0.759586559985005,0.415952349680175,46.5925708923801,19.0168675995638,292,9,0.222413608017386,89.280638590205,0.0141884291024589,1.826138404,0.000409006621656076
1981,0.752169716463863,0.411901059077532,46.7537227779704,19.0367752956826,293,9,0.222789126697247,89.4824323282816,0.0141788808895789,1.826093184,0.0004098634022371
1981,0.743944154026301,0.407502920917728,46.9125369549004,19.0563474713119,294,9,0.221729685773439,89.6733621830046,0.014078669301151,1.82561674,0.000410706616713663
1981,0.734924606592929,0.402767610709072,47.0692012953763,19.0756095078029,295,9,0.219182505153779,89.8535394054979,0.0138850387127899,1.824686462,0.00041153731567818
1981,0.725283478819668,0.397706364316361,47.223923925808,19.094589002371,296,9,0.216366969295484,90.023063496934,0.0136756494517068,1.8236657592,0.000412356650541546
1981,0.715168536804814,0.39233099244235,47.3765988786653,19.1132748764762,297,9,0.214298679775802,90.182062768034,0.0135146706587565,1.8228703584,0.000413164105953685
1981,0.704725375623803,0.38665401105367,47.526859835774,19.1316243674535,298,9,0.213988420976077,90.330684023919,0.0134654531345988,1.8226252812,0.000413957794139518
1981,0.693867559611354,0.380688591306801,47.6740809221683,19.1495634636116,299,9,0.214574799423939,90.4690901567115,0.0134733059376523,1.822664444,0.000414734467369497
1981,0.620678458156553,0.34053509482488,47.8178687502245,19.1670469808077,300,8,0.209679127125462,89.8195882496217,0.0134716856269326,1.8226563652,0.00041549211673197
1982,0.908198586053174,0.50243497721529,6,10.2186114170614,141,24,0.0497236006985903,93.5620809207815,0.0107656733212199,1.80759427038062,0.000118096259579378
1982,0.922014998364369,0.510089560235022,6.25754249560637,10.3495856388367,142,24,0.051270747000878,92.7383012515653,0.0107594012886927,1.80755512412282,0.000121142992775777
1982,0.935417411951473,0.517106659935535,6.51876577101542,10.4786481054335,143,24,0.0539699390994202,91.7972158604571,0.0109843120450823,1.80894481627463,0.000124183211134945
1982,0.948041613851725,0.523470125120843,6.78320001287104,10.6056761393151,144,24,0.057401634260301,90.7482627078955,0.0113375672213015,1.8110710971956,0.000127212297360292
1982,0.959575123893754,0.529195335230284,7.05039200674847,10.7305701486665,145,24,0.0610800841907879,89.601689192056,0.0117152032713874,1.81327207556768,0.000130226080485696
1982,0.970236639885012,0.534259076127708,7.31994051865936,10.8532663412954,146,24,0.065503540240167,88.3681839980958,0.0122082883140976,1.81604147358105,0.000133221185830684
1982,0.980694485879777,0.538880959912347,7.59136044855281,10.9736724871168,147,24,0.0713181476672914,87.0598290014483,0.0129247339113419,1.81987221452266,0.000136193494168102
1982,0.991155952713135,0.543085251962317,7.86417335001655,11.0917098179427,148,24,0.0791633397118653,85.6884082017216,0.0139597038663398,1.8250467106809,0.000139139158188722
1982,1.0007650306002,0.546967527315217,8.13777113391694,11.2072542446077,149,24,0.0870792297463515,84.2663594488445,0.0149522812113135,1.82966077623007,0.00014205313480924
1982,1.00900631598699,0.550652988143886,8.41187687417309,11.3203291164614,150,24,0.093058440699061,82.8061679880111,0.0155703125921083,1.83238144114699,0.000144934067310632
1982,1.06678306655065,0.581592879688857,8.68666123675947,11.431134892485,151,24,0.0978319613283686,81.6807776136634,0.0160080070470758,1.83424368455364,0.000147785243929577
1982,1.07525830939282,0.585563344020682,8.97734656832615,11.5457247577484,152,24,0.103508829950109,80.1865122774585,0.0165007316687887,1.83628008886232,0.000150763000925762
1982,1.08459705084481,0.589652379459463,9.26887141215896,11.6580769322748,153,24,0.111192747881489,78.6867434598613,0.0172810354302149,1.83938382787341,0.000153711445722836
1982,1.09446288928802,0.593968260964397,9.56089270304796,11.768177657479,154,24,0.119614120144939,77.1954399683469,0.0181362697230271,1.84262857330288,0.000156628506056796
1982,1.10425015898285,0.598595975661026,9.85334733379088,11.8761171494806,155,24,0.126422421848131,75.7227403627753,0.0187136327776892,1.84473368328852,0.000159514923290916
1982,1.11420224479357,0.60361284278597,10.1466956549313,11.9821660606453,156,24,0.131660217638072,74.2766349235662,0.0190382441319357,1.84588889734516,0.000162376449821962
1982,1.12453322598747,0.609070805232084,10.4414582630779,12.0865952086702,157,24,0.135546683879067,72.8658701628406,0.0191578309370616,1.84630951989067,0.000165219128994957
1982,1.13539976172184,0.614997463297872,10.7381542257105,12.1896544840792,158,24,0.138350204803747,71.4985576614441,0.0191226608503699,1.84618608934313,0.00016804870297983
1982,1.14711490629777,0.621394952959886,11.0372690927859,12.2915641303579,159,24,0.141079485037736,70.1822264364721,0.0190788173867767,1.8460319010216,0.000170870337109317
1982,1.15969679457642,0.628237916698371,11.3390797191639,12.3924595001858,160,24,0.143955462618103,68.9241347275692,0.0190560267974715,1.84595161124795,0.000173687030427407
1982,1.17281208210871,0.635476058958371,11.6438021187514,12.4924468550991,161,24,0.146156929069973,67.7311213911332,0.0189465371526401,1.84556454263769,0.000176501091145665
1982,1.18607183326666,0.643042207815147,11.951798664663,12.5916720864425,162,24,0.146776320335079,66.6095354069699,0.0186402196255389,1.84446964577419,0.000179316058385763
1982,1.19913123496499,0.650848978951787,12.2635873185425,12.6903200353845,163,24,0.145243572458384,65.5651364221624,0.0180775872406335,1.84241087217534,0.00018213672478491
1982,1.21252855301576,0.658792771307329,12.5797536172945,12.7885838617087,164,24,0.144060770150514,64.6034852286475,0.017578705803201,1.84053105289784,0.000184968291414201
1982,1.22668057434943,0.66674392673343,12.9002939521541,12.8864653590891,165,24,0.145318346410502,63.7310055801016,0.0173904117952906,1.83980764603181,0.000187810554422565
1982,1.24099451173879,0.674550122964848,13.2247026205357,12.9838170977738,166,24,0.147961231847623,62.9550164085455,0.0173720139226253,1.83973654364519,0.000190658930018901
1982,1.25483908677268,0.682050102683976,13.5526126045031,13.0805424776347,167,24,0.150904639323643,62.2829936824096,0.0173896879155272,1.83980484987054,0.000193510210071669
1982,1.26794338336231,0.689250575148018,13.8837929387378,13.1765908152645,168,24,0.153219755891419,61.6877553322596,0.0173359981625809,1.83959713503324,0.000196362472853132
1982,1.28093222046531,0.696244448752709,14.2182100269791,13.2719709487325,169,24,0.156414959634031,61.1351895873184,0.0173816238649466,1.83977369264494,0.000199215542411478
1982,1.29416457966507,0.702994041565097,14.5555652052284,13.3666177366299,170,24,0.161978630844089,60.6232131060608,0.0176840762727737,1.84093250176607,0.000202067016734284
1982,1.30721600457894,0.709461537505707,14.8952209898747,13.4603777600188,171,24,0.168825482992685,60.1503488355273,0.018114174178472,1.8425466857228,0.000204911753704082
1982,1.31963310444651,0.715618078994874,15.2367381463506,13.5531610112034,172,24,0.17560338426092,59.7149651542527,0.018523202937645,1.84404662651901,0.000207746429792743
1982,1.33104378693256,0.721444771819368,15.5799470624063,13.6449549125172,173,24,0.181031599359271,59.3151742365348,0.0187795162568361,1.84496975919014,0.000210570041813168
1982,1.34147293703656,0.726932421351501,15.9249507186783,13.7358191888186,174,24,0.185174312307195,58.9488267491336,0.0188970283925565,1.84538878392921,0.00021338382912943
1982,1.35120585610929,0.732076346824185,16.2718403060971,13.8258072384242,175,24,0.189100355114784,58.6138754960737,0.0189896249349069,1.84571713315278,0.000216188888478722
1982,1.36023754245677,0.736872388331653,16.6204719563954,13.9149099503944,176,24,0.192810336681183,58.3086354270712,0.0190586332958528,1.84596079863499,0.000218984398033065
1982,1.36858041784582,0.741320693702193,16.9707001181281,14.0031185659715,177,24,0.19634315407106,58.0314524328776,0.019109019976521,1.84613815514991,0.0002217695450571
1982,1.37626190388484,0.745425405507305,17.3223712972605,14.0904230948356,178,24,0.199770625966431,57.7806898803113,0.0191486053431478,1.84627716431025,0.000224543475962484
1982,1.38345956314689,0.749193231185833,17.6753186806361,14.1768110781091,179,24,0.203756083497122,57.5546672434957,0.0192406038862305,1.84659912230805,0.000227305255615612
1982,1.39027626579023,0.75263562485582,18.029229724531,14.2622359996962,180,24,0.208659830792613,57.3519815609562,0.0194164589430521,1.84721028327162,0.000230052846092533
1982,1.39666179715523,0.755763163409524,18.3837146550303,14.3466357635426,181,24,0.214238416814203,57.1711233006164,0.0196505135447247,1.84801517826613,0.000232783674022144
1982,1.40257657028169,0.758591885882317,18.7384416691326,14.4299652352486,182,24,0.22023503498457,57.0104711726103,0.019917332357877,1.84892113451802,0.000235495679092079
1982,1.40796960398598,0.761142035657844,19.0931441297217,14.5121967409528,183,24,0.226284771043269,56.8682252515202,0.0201832127731708,1.84981191160871,0.000238187347676492
1982,1.41276107020045,0.763438173767631,19.4476495796045,14.5933255016644,184,24,0.231821109865394,56.7423602097003,0.0203984703292534,1.85052453328127,0.000240857909348259
1982,1.41704863395761,0.765509569536458,19.8019315677051,14.6733797996215,185,24,0.237009960677935,56.6305558748647,0.0205795227103792,1.85111811837399,0.000243507695714684
1982,1.42103038102573,0.767387335065132,20.155943169689,14.7523820039855,186,24,0.242490014646888,56.5303757681207,0.0207824400559037,1.85177721353079,0.000246136869527537
1982,1.42492278494217,0.769102593130025,20.5095052796026,14.8303244541269,187,24,0.249041809353008,56.4393723303815,0.0210725214269994,1.85270833523411,0.000248744609784333
1982,1.42886959297622,0.770685875364068,20.8622695722794,14.9071632163223,188,24,0.257172553518704,56.3551040893271,0.0214891046178241,1.85402332993482,0.000251328874563181
1982,1.43262598795287,0.77216794085052,21.2137786841166,14.9828330430432,189,24,0.265466962234172,56.2750492721679,0.0219110565536961,1.8553295367001,0.000253886877116323
1982,1.43594111232493,0.773532570494949,21.5639263918322,15.0573458955895,190,24,0.272761508278386,56.1995754474271,0.0222438588928396,1.8563421465319,0.000256418424603583
1982,1.43914132831921,0.77484334406034,21.9128802730462,15.1307703856503,191,24,0.280094907966646,56.1236629016797,0.0225740632001381,1.85733198762192,0.000258925280250926
1982,1.44254366112965,0.776167386910137,22.260594199152,15.2031277860787,192,24,0.288529267633845,56.0420323487287,0.0229861327501918,1.85854711942008,0.000261407633329671
1982,1.44639852672512,0.777543476323462,22.6067985172007,15.274392601688,193,24,0.299166448146435,55.9512191404683,0.0235642325428706,1.8602156287958,0.000263864079036755
1982,1.45044103970668,0.779009025116564,22.9509681407743,15.3444885622974,194,24,0.310225503204837,55.8478653755724,0.0241644862049291,1.86190530910685,0.000266291441783588
1982,1.45441042258984,0.780609866336073,23.2930328017249,15.4134336066165,195,24,0.319606949312076,55.7280364879929,0.024624469937605,1.86317197016272,0.000268689791013981
1982,1.40316146871601,0.752721751914665,23.6334738437082,15.4813542644211,196,24,0.326914361397015,54.8228033045729,0.0249733755541536,1.86411707267241,0.000271063019073068
1982,1.40729398356464,0.754641084409354,23.9563479759039,15.5451430058897,197,24,0.333852109405108,54.6646817309532,0.0252481274954014,1.86485206363513,0.000273301375051391
1982,1.41197176135988,0.756890397809703,24.2783805381518,15.6081713833645,198,24,0.340405607477469,54.4760392365425,0.025489194973586,1.8654903873082,0.0002755220897068
1982,1.41660737269352,0.75916237715198,24.5998503843165,15.6705111198989,199,24,0.34644845185168,54.2833625030137,0.0256885318572206,1.86601366891753,0.000277727380110813
1982,1.42030465124618,0.761021898883327,24.920898060569,15.7322048640808,200,24,0.351358630455984,54.1219707068187,0.0258030501037607,1.86631245872194,0.000279918472614767
1982,1.42311040055097,0.762515308749246,25.2415818668061,15.7932781396308,201,24,0.354828037262322,53.9882959632251,0.0258124116420985,1.86633682527016,0.000282096008575176
1982,1.42500057482936,0.763659491535735,25.5620665757927,15.8537755782288,202,24,0.356439050179468,53.8808770834203,0.0256892956636573,1.86601566617558,0.00028426133135651
1982,1.42597700780822,0.764473402351139,25.8826350331876,15.9137622623107,203,24,0.355944387930768,53.7980542594592,0.0254194152142295,1.86530624011591,0.000286416547270678
1982,1.42622202612789,0.764977608641156,26.2036448191509,15.9733148583359,204,24,0.354351335680399,53.7380199136766,0.0250776957370277,1.86439708825114,0.000288564218422789
1982,1.42603551539406,0.765190375504667,26.5252060262851,16.0324621234343,205,24,0.35349719596267,53.699109549687,0.0247947702142859,1.86363493457892,0.000290705212255767
1982,1.4255622652589,0.765125196731281,26.8469675221146,16.0911481044647,206,24,0.354193013294415,53.679971292949,0.0246256414173305,1.86317516577561,0.000292837329536517
1982,1.42496066710456,0.764794109736565,27.1683782977039,16.1492827225458,207,24,0.357386452567451,53.6793080674524,0.0246329644283925,1.86319513835611,0.000294957096082048
1982,1.42434484071274,0.764207344004367,27.488650562065,16.2067365505879,208,24,0.363815642743997,53.6958914729098,0.0248631309376224,1.86381988067443,0.000297059549726525
1982,1.42339724279501,0.763374006592114,27.8068093214556,16.2633511298586,209,24,0.371227920761675,53.7285010518023,0.0251585031558931,1.86461319157225,0.000299138595825225
1982,1.42198060426317,0.762310994252402,28.1224601180657,16.319075017841,210,24,0.378434858793416,53.7752776378011,0.0254378632656653,1.86535497321235,0.000301192013063319
1982,1.42012610872859,0.76086483856343,28.4355238417066,16.3739132610379,211,24,0.387799646944624,53.8441898859942,0.0258609618778943,1.86646305197898,0.000303219651547576
1982,1.36326776037663,0.729658529917625,28.7452217802418,16.4277494459,212,24,0.400812322967171,53.0988751059533,0.0266032758961781,1.86836404219182,0.000305216855917946
1982,1.3621287168008,0.727874745907501,29.0339584114646,16.4775788945263,213,24,0.422212948997346,53.1936444223003,0.0278240662761746,1.87137790459061,0.000307071261320124
1982,1.36083694678675,0.725922860967305,29.3159331418056,16.5259091520054,214,24,0.446228015045079,53.2959208511529,0.0292043721057539,1.87463023960068,0.00030887523968185
1982,1.35869432009934,0.723822415640641,29.5903158213281,16.5726280981922,215,24,0.46609567445887,53.4035733385772,0.0303026395354189,1.87711003519666,0.00031062409633129
1982,1.35581728318616,0.721614975216515,29.8580954150203,16.6179325147045,216,24,0.481516223845614,53.5130771124054,0.031104861112676,1.87886522557179,0.000312324717195166
1982,1.35232949779235,0.719346490110531,30.1203857328224,16.6620345118915,217,24,0.492353355895966,53.6209509365027,0.0316073648124052,1.87994174766122,0.00031398466150517
1982,1.34834327927009,0.717068399393748,30.3783785753914,16.705153564845,218,24,0.498413118211724,53.7238905932676,0.0318024990034901,1.88035518007775,0.000315611862482375
1982,1.34392085139613,0.71483979584826,30.6333576237089,16.7475188648646,219,24,0.498978395450299,53.8188763115141,0.0316493067711891,1.88003082537029,0.000317214714682589
1982,1.33917140903009,0.712731194629902,30.8868403604926,16.7893926306823,220,24,0.493760021572287,53.9032063604225,0.0311344700240321,1.87892913782941,0.000318802959541136
1982,1.33433002722175,0.710825639910616,31.14046377673,16.8310506037544,221,24,0.483715006089255,53.9747182663114,0.030323008661447,1.87715517322861,0.00032038695503955
1982,1.32964729985066,0.709217096633316,31.3956482830697,16.8727270092688,222,24,0.469863051942181,54.0321241062307,0.029282626577375,1.87480999282526,0.000321975579367882
1982,1.32547217508096,0.708010943394983,31.6535835574423,16.9146134258175,223,24,0.453996338387178,54.0750355482567,0.028127671864992,1.87210690377919,0.00032357616748565
1982,1.32262175348669,0.707141239054018,31.9150263084504,16.9568273615842,224,24,0.445064086894927,54.1158085383441,0.0274131544074333,1.87037847666195,0.000325193286147693
1982,1.32181174757677,0.706820025094838,32.1782936084279,16.9990930490079,225,24,0.445701974841092,54.1493532225901,0.0272926263106868,1.8700824830188,0.000326816425537951
1982,1.2703981054727,0.6792942291628,32.4411265402486,17.0410492662216,226,24,0.447406453669421,53.2848193343493,0.0273296553283398,1.87017355798592,0.000328431676713309
1982,1.27228109278219,0.680508931806527,32.6880240357896,17.0802464382073,227,24,0.446039431026447,53.2984557892973,0.0270982397812047,1.86960234218337,0.000329944306410014
1982,1.27466735727782,0.682557171286752,32.9358965343163,17.1193913766227,228,24,0.434575256724599,53.2995910291681,0.0262585986537643,1.8674880448107,0.000331458388751503
1982,1.27824545078868,0.685460346168673,33.1879241644823,17.1589825522731,229,24,0.419817566464961,53.3205524922173,0.0252280167336466,1.86479853711937,0.000332993256581781
1982,1.28334005682129,0.688922369825774,33.4454525297794,17.1992219742512,230,24,0.40989772348047,53.4006443840343,0.0244966751535011,1.86282245000382,0.000334556888646413
1982,1.28970633686901,0.692940068451387,33.7074852297817,17.2399441678895,231,24,0.402384273226247,53.5327800822812,0.0239153173498031,1.86120906495031,0.000336143009100639
1982,1.29700572588934,0.69744629407572,33.9736818488745,17.2810881729663,232,24,0.395329696361088,53.7111139065,0.0233665072380052,1.85964960586418,0.00033774936847857
1982,1.30495375798934,0.702376368467706,34.244184657733,17.3226682241495,233,24,0.387379226781614,53.9293243057189,0.022769956917084,1.85791239081151,0.000339376642304636
1982,1.31402171594317,0.707667133147053,34.5194570170953,17.3647470723513,234,24,0.383352937530605,54.1809245741359,0.0224079530720492,1.85683586872208,0.000341027418345865
1982,1.32413515405236,0.713074460504582,34.798657650619,17.4071881802688,235,24,0.386063599741411,54.4721526605294,0.022442091249465,1.85693812833429,0.000342696462970051
1982,1.33482317855161,0.718581780987438,35.0800791169123,17.4497273807307,236,24,0.391905966383565,54.7942947505115,0.0226575794605663,1.85758004707184,0.000344373453656928
1982,1.3456897357139,0.724226521683743,35.3629542805627,17.492247296338,237,24,0.397141085619571,55.1351009595377,0.0228357223888226,1.85810612484245,0.000346053774490203
1982,1.35620116954105,0.729949027120336,35.647518875591,17.5347826397595,238,24,0.398311205980672,55.4896242534032,0.022779166214539,1.857939553521,0.000347738796703878
1982,1.30827006965712,0.704410619276409,35.9348858646592,17.577497383374,239,24,0.39508626904849,54.8126139638616,0.0225481700183543,1.85725489346116,0.000349435044157832
1982,1.31760770538836,0.709720512614048,36.2088410048417,17.617997466202,240,24,0.392796828067214,55.1740082892608,0.0223016056114569,1.85651630743394,0.000351047156714311
1982,1.32669853192617,0.71494980547444,36.4862842680381,17.6587961332029,241,24,0.38980739217249,55.5365345057802,0.0220167199285984,1.85565269305274,0.000352674905767236
1982,1.33541335017305,0.720053974040538,36.7673516099642,17.6999078426134,242,24,0.385777648657603,55.8973285248746,0.0216749387877919,1.85460173586636,0.000354318952833913
1982,1.3436568192398,0.724992755333794,37.0522423204188,17.7413558687906,243,24,0.380599587361787,56.2539140531266,0.0212710640307111,1.85333827042336,0.000355980319245501
1982,1.35162556735634,0.729726359655027,37.3411594899822,17.783163463929,244,24,0.376411019000252,56.6044666496606,0.0209249248976774,1.85223618343088,0.000357660034903219
1982,1.35892082967082,0.733946251350008,37.633723854489,17.8252697128984,245,24,0.374412919113133,56.9708153785374,0.0207049737092731,1.8515263579196,0.000359355745725975
1982,1.36587713801599,0.73790374683754,37.9290762276564,17.8675464348408,246,24,0.3735830638073,57.3287908587367,0.0205505395850705,1.85102344834238,0.000361062356542923
1982,1.37228069214368,0.741569173421554,38.226764449919,17.9099259672166,247,24,0.372698396639087,57.6774740152426,0.020393861403642,1.85050935412008,0.000362777175157386
1982,1.37796919236761,0.74491815714063,38.5266391385703,17.9523848442972,248,24,0.370886110466552,58.0159470225247,0.020187533997924,1.84982629186668,0.000364499278254271
1982,1.38306471785309,0.747930359355616,38.8287640631407,17.9949300298685,249,24,0.369339990571203,58.343305385941,0.0199969644267958,1.84918916654845,0.000366228972145217
1982,1.38766234555178,0.750585438173075,39.1328814813252,18.0375234184646,250,24,0.369017055414111,58.6589175375402,0.0198735576984736,1.84877333742225,0.000367964727046425
1982,1.32504151985236,0.716852196848392,39.4384750683665,18.0800917962909,251,24,0.367814795822237,57.7262220612231,0.0197683028668018,1.84841662713436,0.000369703562717754
1982,1.32777109945256,0.71850421144739,39.7256430855756,18.1198845292878,252,24,0.367191725375569,58.0070898119382,0.0196360290600305,1.84796564626647,0.000371332725303584
1982,1.32936060486869,0.719631435157211,40.0138168977987,18.1596156022348,253,24,0.365259018532714,58.2890093944943,0.0194365596600303,1.8472797878518,0.000372962936837556
1982,1.33006856713579,0.720367969027844,40.3030473736995,18.1992923350791,254,24,0.362138309177968,58.5603073569239,0.0191761814282937,1.84637383159991,0.000374594482027222
1982,1.32983698770287,0.720614991686672,40.5934264510868,18.2389274968467,255,24,0.358772343022489,58.8238145740056,0.0189056830770882,1.8454195417032,0.000376227873034192
1982,1.32889303067188,0.720451081263407,40.8847458444909,18.2784929324011,256,24,0.355774348708262,59.0714447530585,0.0186567429441717,1.84452916406411,0.000377861934603231
1982,1.32729931273469,0.719858310239706,41.17668144908,18.3179454337826,257,24,0.353825240469083,59.3023053543311,0.0184646958468619,1.8438341182624,0.000379494857723853
1982,1.32507140097373,0.718815698434167,41.4687236707597,18.3572177655183,258,24,0.353297632934001,59.5154297247799,0.0183482354802578,1.84340910174917,0.000381123820334598
1982,1.32201650240939,0.717299009145312,41.7602558011716,18.3962297113232,259,24,0.353096474701981,59.7096931805386,0.0182498652911395,1.84304799749357,0.000382745436510546
1982,1.31790678116114,0.715231924792532,42.0509318094838,18.4349385666934,260,24,0.352570447748282,59.9191185533276,0.0181362697230271,1.84262857330288,0.000384357856589326
1982,1.31285327972157,0.71258854910135,42.3405327095077,18.4733192354208,261,24,0.352874277106654,60.1777841319161,0.0180671627577512,1.84237212536915,0.000385959952295107
1982,1.30710612031932,0.709416511026138,42.6285264102922,18.5113058832835,262,24,0.355222536620389,60.484512672902,0.0181039439096179,1.84250873781983,0.000387548881565013
1982,1.30086538182103,0.705761201476191,42.9140914854018,18.5487959910457,263,24,0.360566495605975,60.838253979803,0.0182936530552203,1.84320897649247,0.000389120241483042
1982,1.22408971224571,0.663828558121321,43.1961811512663,18.5856595060297,264,24,0.36505850317497,59.8447321266925,0.0185061375869286,1.84398471151944,0.000390668438324483
1982,1.21568875629613,0.659138754728607,43.4538905139876,18.6191906255179,265,24,0.368519929973575,60.3153789351775,0.0186096513224955,1.84435939712978,0.000392079350516038
1982,1.20650620611105,0.654121499930772,43.7080411618843,18.6521232434075,266,24,0.370508956079401,60.8297792582447,0.0186397762482741,1.84446804796775,0.000393467554642958
1982,1.19672516410229,0.648823511199735,43.9588403368938,18.6844910011101,267,24,0.371796925748114,61.3860529681565,0.0186358971470395,1.8444540671614,0.000394834338751377
1982,1.18649257424333,0.643288428247951,44.2063188084001,18.7163042748367,268,24,0.372934103548731,61.9822524831104,0.0186258152614574,1.84441771706487,0.000396180018053737
1982,1.17568106715347,0.637556890194562,44.4503863496085,18.7475577302575,269,24,0.372153955677594,62.6162905202462,0.0185216609048454,1.84404103419647,0.000397504246640659
1982,1.16422055466494,0.631653144951501,44.6914444830512,18.7783086414546,270,24,0.368415512867115,63.2888501233304,0.0182728869637654,1.84313268123493,0.000398809338528824
1982,1.15211294311162,0.625492410257672,44.9301859955906,18.8086502976407,271,24,0.36304000543441,64.0274179082172,0.0179485128708478,1.84192953298507,0.000400099157753722
1982,1.13991285317802,0.619285476833252,45.1669078768937,18.8386245343738,272,24,0.357536796540739,64.7951169076005,0.0176204640913363,1.8406904340903,0.000401375402745708
1982,1.12782283324461,0.613059859657283,45.4016206938849,18.8682364713909,273,24,0.353208865758448,65.5884897944239,0.0173527067848261,1.83966184619409,0.000402638217276469
1982,1.11593744855259,0.6068385089462,45.6340048841308,18.8974496957514,274,24,0.35049780056826,66.4037896416861,0.0171663231490395,1.83893644207001,0.000403885972071294
1982,1.10407079770544,0.600556535029403,45.8636367785261,18.9262152538397,275,24,0.348785284306641,67.2711811319045,0.0170330152849148,1.83841276100907,0.000405116492379463
1982,1.02270324855854,0.55642707144004,46.0902224325457,18.9545009901978,276,24,0.346553775699892,66.4868634893996,0.0169242764094974,1.8379825516249,0.000406328312180628
1982,1.01112964941144,0.550256452755576,46.2930672744033,18.9797409494292,277,24,0.345256824040913,67.3859064559052,0.0168183318367398,1.83756073072455,0.000407411172481775
1982,0.999923925915349,0.544302179954474,46.4928291220145,19.0045220706683,278,24,0.343648172160477,68.2701824142025,0.0166971563409646,1.83707499756658,0.000408475749362535
1982,0.988786644958032,0.538420551139948,46.6897118481409,19.0288735199181,279,24,0.341351601298153,69.1633103663061,0.0165444542235068,1.83645784482885,0.000409523221035201
1982,0.977861377003838,0.532678270082458,46.8839423612389,19.0528269011449,280,24,0.338528058575827,70.0824554820166,0.0163697693376179,1.83574482370469,0.000410554878517158
1982,0.967307313108043,0.527144141545444,47.0757423567673,19.0764127654136,281,24,0.33554603911631,70.9804637990657,0.0161882627081053,1.8349958519356,0.00041157197537708
1982,0.957204398457179,0.521837701614165,47.2652707389648,19.0996535875708,282,24,0.332828775102479,71.8481146144592,0.0160202916502512,1.83429521381135,0.000412575423760627
1982,0.947623181442161,0.516783582640415,47.4525834259712,19.1225589802259,283,24,0.330624330551112,72.6755702031662,0.0158776503861358,1.83369443858964,0.000413565585037435
1982,0.938585077232726,0.512013283869403,47.6376830812385,19.1451319323845,284,24,0.328594448162489,73.4524266458611,0.0157439543634625,1.83312641839997,0.000414542536510595
1982,0.930134060579722,0.507567031094991,47.8206802699596,19.1673884749746,285,24,0.326460768912993,74.1677764632591,0.0156058150425709,1.83253443111369,0.000415506922288443
1982,0.922391007587534,0.503495028096506,48.0017822574596,19.1893561532629,286,24,0.324505913303787,74.8103948153272,0.0154767086474875,1.83197639721427,0.000416459890193593
1982,0.915497858914336,0.499858119615341,48.1811477857447,19.2110563356904,287,24,0.323030484916375,75.3690349420187,0.0153708655125572,1.83151543005612,0.000417402325717244
1982,0.841055538878225,0.459290547021257,48.3588879979441,19.2325044122417,288,24,0.321290307763083,74.1688579457756,0.015300190282157,1.83120585505823,0.000418334858978262
1982,0.836585231288954,0.456924018528495,48.5148175672787,19.2512753810746,289,24,0.320488968295868,74.5517996229657,0.0152321949021203,1.83090666580221,0.00041915184905766
1982,0.832763859985222,0.454944167120035,48.6696464461766,19.2698722888265,290,24,0.319060153365575,74.870862096883,0.0151345924744246,1.83047485861161,0.000419962049223882
1982,0.829126894475005,0.453077695876857,48.8237575581625,19.2883420815714,291,24,0.317378504238012,75.179295801251,0.015025369561866,1.82998832655041,0.000420767485728438
1982,0.82568809935356,0.451310076906434,48.9772820752336,19.3067012152926,292,24,0.315867153023702,75.4769035753607,0.0149245654507577,1.82953614732769,0.000421568861284092
1982,0.822439920828578,0.449626846861612,49.1302283591326,19.324951361186,293,24,0.314723825310408,75.7635877388081,0.0148414612639594,1.82916106226573,0.000422366235156035
1982,0.819259072843717,0.448013601991628,49.282543187788,19.3430868488221,294,24,0.31293952785677,76.0393179270559,0.0147284845039883,1.82864776694665,0.000423159345748418
1982,0.816084621356726,0.446456603613594,49.4344390512841,19.3611335892772,295,24,0.310149576861585,76.3040224138261,0.0145686412369937,1.82791477324198,0.000423949313695975
1982,0.812976763662787,0.444942292114536,49.5862195646326,19.3791280619982,296,24,0.307245284514229,76.5576353641646,0.0144039358101229,1.82715102176332,0.000424737727189328
1982,0.810023537077994,0.443456386405023,49.7379390083772,19.3970769694029,297,24,0.305397752664433,76.8001876067157,0.0142891903767487,1.82661375934763,0.000425524873915764
1982,0.807263096285624,0.441983524383975,49.8893267437013,19.4149486401113,298,24,0.305277690509016,77.0318149949064,0.0142554963311767,1.82645517705839,0.000426309357457359
1982,0.804559752285952,0.440507370127891,50.0399223654342,19.4326893379232,299,24,0.305802441572759,77.2527077128945,0.0142520211229906,1.82643879954237,0.000427088806431319
1982,0.737349493959237,0.403740983951367,50.1895495586482,19.4502791359771,300,24,0.304643605568955,75.7338798687331,0.0142212051796426,1.82629339915627,0.000427862328377815
1983,1.35033622630132,0.745084251119298,6,10.2186114170614,141,24,0.0540650950673263,85.2773052104034,0.0115515152889748,1.8123268936,0.000118096259579378
1983,1.35577224411073,0.7476097954667,6.3888813393702,10.4149359449515,142,24,0.0575732396796101,84.5353161495193,0.0117507807890228,1.8134757628,0.000122677687248873
1983,1.35943565672739,0.749198822165853,6.77834104069953,10.6033734112583,143,24,0.0610573220797508,83.804246243474,0.0119347389504044,1.8145192124,0.000127157062121904
1983,1.36144119234796,0.749974020222848,7.16785454109383,10.7844330539096,144,24,0.0643670205316333,83.0848720471543,0.0120774724223004,1.8153178052,0.000131536720922823
1983,1.36191338126547,0.750038737484772,7.55697679263872,10.9585870742246,145,24,0.0673846844217915,82.3775981913159,0.0121628010172802,1.8157907228,0.000135819303500515
1983,1.36109007439855,0.749457843604652,7.94533540169183,11.1262742015788,146,24,0.0702345978059292,81.6835861301915,0.01221885318391,1.8160995792,0.000140007690221114
1983,1.35926402494988,0.748350788445812,8.33259204466961,11.28788962233,147,24,0.0730066534112767,81.0004136478299,0.0122637751176834,1.8163460852,0.000144104612380279
1983,1.35663509581218,0.746765307262911,8.7184692561312,11.4438028256382,148,24,0.075864053574065,80.3286694910433,0.0123252573736037,1.8166820052,0.000148112975332247
1983,1.35350746235811,0.744754977378288,9.10270056880263,11.594342595367,149,24,0.0791460140446357,79.6678166438854,0.0124551568206762,1.8173862592,0.000152035368611846
1983,1.34995197701002,0.742373374596384,9.48500900329667,11.7397951810573,150,24,0.0828675185690218,79.0171404733972,0.0126496796881519,1.818427254,0.000155873904252209
1983,1.41644535938665,0.778465353723418,9.86513434082897,11.8804204266851,151,24,0.0865348262758838,78.8486072722767,0.0128601123081483,1.8195355164,0.000159630543790236
1983,1.41136349042996,0.775281630704929,10.2641075007622,12.0240131518807,152,24,0.0903638282236063,78.1923672202169,0.0130368965527073,1.8204526388,0.000163512612955803
1983,1.4054808826833,0.771854762641986,10.6604073994241,12.1628424735496,153,24,0.0936050404347074,77.5439854107388,0.0131266791049072,1.8209136624,0.000167310245910325
1983,1.39890114127553,0.768241677184123,11.0539701520987,12.2971972208313,154,24,0.0961842933252335,76.9045108887363,0.0131265201942578,1.8209128492,0.000171026989040028
1983,1.39200392502821,0.764499188157759,11.4447852064838,12.4273540452129,155,24,0.0985694837965071,76.2718840053505,0.0131054570731859,1.8208049748,0.00017466653942166
1983,1.38509547280893,0.760688220347756,11.8328155388533,12.5535537311967,156,24,0.101134668265162,75.6432733796404,0.0131133017069211,1.8208451712,0.000178232026474911
1983,1.37852723691167,0.75687842740884,12.2180037802164,12.6760076339935,157,24,0.10436122136975,75.0177022501757,0.0132087712446986,1.8213324452,0.000181726121443624
1983,1.372642327331,0.753143253892668,12.600253584879,12.7948955142123,158,24,0.108774040212415,74.3943737601351,0.0134506606166305,1.8225514472,0.000185150914241572
1983,1.36774764497528,0.749563752254657,12.9794140710146,12.9103644392525,159,24,0.114899879448811,73.7728094309542,0.0138929868833149,1.8247249028,0.000188507822684802
1983,1.3637063991011,0.746228376959716,13.3552684006725,13.0225289038668,160,24,0.122302019065816,73.1528919688829,0.0144714652762058,1.827465212,0.000191797540411566
1983,1.36017450065251,0.743234427241182,13.7276897146831,13.1315193103965,161,24,0.129829816491885,72.5347095971522,0.0150446957927821,1.830074672,0.000195021425592514
1983,1.35684416447308,0.740689211058707,14.0967931199313,13.2375238634373,162,24,0.136058924999066,71.9184117846856,0.0154515369514341,1.831867056,0.000198182766011238
1983,1.3534430287527,0.738710492524373,14.4630286917735,13.3408096254772,163,24,0.139370191751209,71.3041367231287,0.0155213244915377,1.832169764,0.000201287472704402
1983,1.35007863513362,0.737426397543467,14.8272505428739,13.4417350800658,164,24,0.139168306128763,70.6919543453332,0.015207531235233,1.830797812,0.000204344539487552
1983,1.34760593896887,0.736972839634765,15.1905236415754,13.5406908362189,165,24,0.137139485338068,70.0821031709077,0.0147112985652091,1.82856934,0.000207364313396886
1983,1.34692703638918,0.737488078130002,15.5536635776646,13.6379753111172,166,24,0.135144002788162,69.4754961624851,0.0142377002915933,1.826371268,0.000210354677367858
1983,1.34894918269546,0.739109669894822,15.9171984877449,13.7337926127098,167,24,0.134976328628769,68.8736551763832,0.0139708175899745,1.825100168,0.000213320868680797
1983,1.35352187764358,0.741411816409378,16.2813903439649,13.828265658949,168,24,0.138369007978634,68.2412033252202,0.0140752928352332,1.825600628,0.000216265778087271
1983,1.35986641456503,0.743921562450841,16.6459362048644,13.9213668232501,169,24,0.145811292293774,67.5441012078438,0.0145806576837293,1.827970156,0.00021918767386826
1983,1.3675853719318,0.746702865325334,17.0101527415458,14.0129753543926,170,24,0.156283972897036,66.7867362227065,0.0153670514756604,1.83149876,0.000222081861890386
1983,1.37639089492143,0.749821071331248,17.3735431612562,14.103023584334,171,24,0.168957745687137,65.9736464964593,0.0163407866632913,1.835625788,0.0002249452556367
1983,1.38599857016186,0.753344306546514,17.7357731060265,14.1914871052795,172,24,0.182716958600234,65.109579193421,0.0173869601064228,1.839794312,0.000227776118180289
1983,1.39608332974037,0.757339951717129,18.096757589495,14.2784024062598,173,24,0.195900651443067,64.1992286371785,0.0183467819137898,1.84340378,0.000230574676705621
1983,1.40607610974898,0.761878108418498,18.4568123929842,14.3638983534194,174,24,0.205420535332863,63.2470879883258,0.0189394626713481,1.845539456,0.000233344204973151
1983,1.41599388042418,0.767035179273752,18.817009065309,14.4482726367647,175,24,0.210241196848971,62.2569947898973,0.0190871396745608,1.846061196,0.000236093608301156
1983,1.42637404521252,0.772890042346798,19.1787348703816,14.5318797407966,176,24,0.211719777060528,61.2325874444151,0.0189303364797611,1.84550708,0.000238833896363668
1983,1.43776614181091,0.779517350987391,19.5431311508272,14.6150001038679,177,24,0.211531927984146,60.1778792833257,0.0186295608421843,1.844431224,0.000241573904646436
1983,1.45068898846405,0.786984919648741,19.9110014149752,14.6978243214048,178,24,0.211307174877319,59.0973063923556,0.01833221587242,1.843350428,0.000244319695043755
1983,1.46551001590692,0.795351889984639,20.2828159590512,14.7804598159311,179,24,0.212082987980718,57.9956741911359,0.0181267325122697,1.84259324,0.000247074692514946
1983,1.48236680736179,0.804668666730215,20.6588440674291,14.8629648387202,180,24,0.214024184123603,56.877975850675,0.0180229902700011,1.842207692,0.00024984074959272
1983,1.50141924450709,0.814978364586851,21.0393468544006,14.9453930143686,181,24,0.217445860519341,55.7491626567117,0.0180426989849784,1.842281108,0.00025261960604324
1983,1.52280633167157,0.826315297789963,21.4245388695969,15.0277854271873,182,24,0.22266459157161,54.6141718931573,0.0182063778904866,1.84288774,0.000255412615420518
1983,1.54662437264338,0.838703870611367,21.8145813916269,15.1101699538292,183,24,0.229934229489406,53.4779269330489,0.0185282436846892,1.844064904,0.000258220710507993
1983,1.57257808917614,0.85215769506787,22.2095884345731,15.1925632944312,184,24,0.238005688251787,52.3453303997522,0.0189022571420597,1.845407368,0.000261044460792933
1983,1.60051394038372,0.866685278451537,22.6099601548504,15.275039896126,185,24,0.24618457014654,51.2209443084951,0.0192715846050159,1.846707196,0.000263886443444195
1983,1.63076451691507,0.882288119981638,23.0162589659215,15.3577033307509,186,24,0.255875590728235,50.109145221091,0.019744463686797,1.848335572,0.000266750302958868
1983,1.66362798778147,0.898950242729379,23.4287256437776,15.4405877873574,187,24,0.268596331401579,49.0146087303639,0.0204317744026279,1.850634116,0.000269637338217372
1983,1.69932297285278,0.916634908176572,23.8472351406915,15.5236534932666,188,24,0.285893203614118,47.9423362748283,0.0214404631172421,1.853871108,0.000272546276964679
1983,1.73704177123965,0.935281358797823,24.2712640714631,15.6067848601061,189,24,0.304869537000343,46.8976594694916,0.0225431068249204,1.857239808,0.000275473140882718
1983,1.77558491216913,0.954713354046789,24.7009157417349,15.6899924357745,190,24,0.321218467967878,45.8887441826265,0.0234221738000936,1.859809444,0.000278418341355905
1983,1.81490535643296,0.974907335695405,25.1372256749953,15.7734634753539,191,24,0.334600044758357,44.9180040051891,0.0240614668164027,1.86161832,0.000281388602398858
1983,1.85496525128379,0.995852665316495,25.5813172684977,15.8573926341432,192,24,0.344716863141569,43.9875011594408,0.0244485855422035,1.862690452,0.000284391055208847
1983,1.89561469931809,1.01747400652007,26.0343917849403,15.9419794101243,193,24,0.351430670501721,43.1009525350123,0.0245833057192965,1.863059584,0.000287433154532279
1983,1.93683074600664,1.039682834566,26.4976469935853,16.0274126185722,194,24,0.355491735630957,42.2619819401364,0.0245269366423847,1.86290538,0.000290522122945162
1983,1.97846384584753,1.06237023896939,26.972048696698,16.1138293011706,195,24,0.357254013419861,41.4742061219462,0.0243108901401765,1.86231106,0.000293663446114402
1983,1.95963461437293,1.05289376764251,27.4584116464263,16.2013319826006,196,24,0.354979974290442,40.0218896996761,0.0239082815839771,1.8611893,0.000296861457922792
1983,1.99971656474147,1.07545498588626,27.939808038451,16.2868837273365,197,24,0.350361068574303,39.3568916531402,0.0232848579331219,1.859414472,0.000300004911886595
1983,2.03905402416366,1.09805903942327,28.4346146873011,16.3737546184453,198,24,0.342351993650387,38.7508230647744,0.0224501027690421,1.856962104,0.000303213775943148
1983,2.08127394416987,1.12220395831265,28.9436252964551,16.462026701101,199,24,0.335165968267766,38.1780066250327,0.0216842957564509,1.854630728,0.000306491882763778
1983,2.12965532775523,1.14913880346822,29.4674576892258,16.5517466239757,200,24,0.332904809489081,37.6159264622126,0.0212469398951257,1.853262044,0.000309841818147611
1983,2.18426821588981,1.17887892137995,30.0064828447056,16.6429156749056,201,24,0.335369827217254,37.0609214620434,0.0211123180293848,1.852835076,0.000313264512057132
1983,2.24505143278834,1.21133747702139,30.5611523613074,16.7355468334644,202,24,0.34274869405644,36.510222208102,0.0212797782523664,1.853365784,0.000316761352348355
1983,2.31190416790399,1.24642507984017,31.1318431829269,16.8296385497954,203,24,0.355227492482726,35.9609029976189,0.021748078755937,1.854828024,0.000320333199073681
1983,2.38467908263878,1.28405162673025,31.7188461855533,16.9251737687847,204,24,0.372961609053335,35.4103418737556,0.0225136674213124,1.857152028,0.000323980331851007
1983,2.46284668276211,1.3241267188316,32.322361427629,17.0221201555125,205,24,0.394566830115363,34.8565313630242,0.0234810509483074,1.859978088,0.000327702441487176
1983,2.54569255187311,1.36657094239991,32.942845383423,17.1204858012166,206,24,0.417649718978154,34.2980226472933,0.024500283550046,1.862832344,0.000331500769674967
1983,2.63244445646107,1.41132415089279,33.5812582332915,17.2203550266912,207,24,0.439147478833345,33.7338387300376,0.0253906642938117,1.86523022,0.000335379548176093
1983,2.72232817055674,1.45835200859034,34.2392473265798,17.32191134229,208,24,0.455590928408773,33.163358034685,0.025958300381791,1.866715412,0.000339346986086655
